TITLE	Top7_5_measure2
DATA TYPE	
ORIGIN	JASCO
OWNER	
DATE	18/04/18
TIME	18:26:49
SPECTROMETER/DATA SYSTEM	
LOCALE	2055
RESOLUTION	
DELTAX	-0.2
XUNITS	NANOMETERS
YUNITS	CD [mdeg]
Y2UNITS	HT [V]
FIRSTX	  250.0000
LASTX	  190.0000
NPOINTS	     301
FIRSTY	    -0.19049
MAXY	     2.70356
MINY	   -30.88683
XYDATA
250.0000	-0.190487	291.079
249.8000	-0.194421	291.306
249.6000	-0.20068	291.534
249.4000	-0.207902	291.764
249.2000	-0.221964	291.996
249.0000	-0.244315	292.23
248.8000	-0.268605	292.464
248.6000	-0.270761	292.699
248.4000	-0.293441	292.936
248.2000	-0.303622	293.172
248.0000	-0.331445	293.41
247.8000	-0.3605	293.649
247.6000	-0.427601	293.887
247.4000	-0.464628	294.127
247.2000	-0.481752	294.367
247.0000	-0.512419	294.609
246.8000	-0.526986	294.852
246.6000	-0.55949	295.095
246.4000	-0.591756	295.339
246.2000	-0.617097	295.587
246.0000	-0.653906	295.836
245.8000	-0.683515	296.086
245.6000	-0.697292	296.338
245.4000	-0.715587	296.592
245.2000	-0.733878	296.85
245.0000	-0.778488	297.11
244.8000	-0.824405	297.375
244.6000	-0.859034	297.642
244.4000	-0.898112	297.912
244.2000	-0.942096	298.186
244.0000	-1.0055	298.463
243.8000	-1.0659	298.745
243.6000	-1.13487	299.033
243.4000	-1.21032	299.325
243.2000	-1.24977	299.622
243.0000	-1.31033	299.92
242.8000	-1.35072	300.224
242.6000	-1.39917	300.529
242.4000	-1.46333	300.839
242.2000	-1.5272	301.152
242.0000	-1.61086	301.472
241.8000	-1.6922	301.796
241.6000	-1.77093	302.126
241.4000	-1.8594	302.46
241.2000	-1.94491	302.801
241.0000	-2.00411	303.148
240.8000	-2.06888	303.502
240.6000	-2.17331	303.861
240.4000	-2.25602	304.228
240.2000	-2.3737	304.6
240.0000	-2.49339	304.98
239.8000	-2.61212	305.367
239.6000	-2.72783	305.761
239.4000	-2.83239	306.161
239.2000	-2.95226	306.569
239.0000	-3.09599	306.986
238.8000	-3.21946	307.411
238.6000	-3.37118	307.843
238.4000	-3.5423	308.284
238.2000	-3.67173	308.732
238.0000	-3.8161	309.189
237.8000	-3.97993	309.654
237.6000	-4.14895	310.126
237.4000	-4.35012	310.606
237.2000	-4.53507	311.094
237.0000	-4.73863	311.591
236.8000	-4.90459	312.096
236.6000	-5.12076	312.609
236.4000	-5.31638	313.13
236.2000	-5.56062	313.659
236.0000	-5.82586	314.196
235.8000	-6.04043	314.743
235.6000	-6.26774	315.296
235.4000	-6.53105	315.857
235.2000	-6.79914	316.424
235.0000	-7.07898	316.999
234.8000	-7.34471	317.582
234.6000	-7.59022	318.172
234.4000	-7.86782	318.771
234.2000	-8.17227	319.377
234.0000	-8.45037	319.991
233.8000	-8.772	320.613
233.6000	-9.08863	321.242
233.4000	-9.40584	321.877
233.2000	-9.71839	322.517
233.0000	-10.0165	323.161
232.8000	-10.355	323.809
232.6000	-10.7206	324.464
232.4000	-11.0954	325.125
232.2000	-11.4708	325.794
232.0000	-11.8323	326.473
231.8000	-12.1705	327.16
231.6000	-12.5413	327.855
231.4000	-12.933	328.559
231.2000	-13.3278	329.27
231.0000	-13.7172	329.987
230.8000	-14.1038	330.712
230.6000	-14.4907	331.443
230.4000	-14.8623	332.18
230.2000	-15.2578	332.921
230.0000	-15.6614	333.668
229.8000	-16.0757	334.419
229.6000	-16.4929	335.176
229.4000	-16.8412	335.938
229.2000	-17.2077	336.704
229.0000	-17.6328	337.477
228.8000	-18.0479	338.256
228.6000	-18.466	339.041
228.4000	-18.8675	339.83
228.2000	-19.2441	340.625
228.0000	-19.6468	341.426
227.8000	-20.0674	342.23
227.6000	-20.4458	343.039
227.4000	-20.8908	343.851
227.2000	-21.283	344.67
227.0000	-21.6442	345.496
226.8000	-22.0035	346.328
226.6000	-22.384	347.167
226.4000	-22.7732	348.015
226.2000	-23.1499	348.869
226.0000	-23.501	349.731
225.8000	-23.8075	350.599
225.6000	-24.122	351.471
225.4000	-24.4707	352.347
225.2000	-24.8244	353.224
225.0000	-25.2004	354.106
224.8000	-25.5216	354.992
224.6000	-25.8247	355.884
224.4000	-26.0888	356.785
224.2000	-26.371	357.69
224.0000	-26.6239	358.603
223.8000	-26.877	359.522
223.6000	-27.1357	360.451
223.4000	-27.3701	361.386
223.2000	-27.5803	362.33
223.0000	-27.7842	363.279
222.8000	-28.0495	364.237
222.6000	-28.3362	365.202
222.4000	-28.5238	366.172
222.2000	-28.6565	367.149
222.0000	-28.819	368.134
221.8000	-28.9759	369.126
221.6000	-29.2135	370.125
221.4000	-29.4322	371.13
221.2000	-29.59	372.144
221.0000	-29.7552	373.165
220.8000	-29.8601	374.193
220.6000	-29.9744	375.227
220.4000	-30.1103	376.268
220.2000	-30.2459	377.316
220.0000	-30.3898	378.371
219.8000	-30.489	379.436
219.6000	-30.5733	380.51
219.4000	-30.6187	381.593
219.2000	-30.7137	382.684
219.0000	-30.7872	383.786
218.8000	-30.8183	384.896
218.6000	-30.8088	386.018
218.4000	-30.7411	387.149
218.2000	-30.6771	388.288
218.0000	-30.6968	389.438
217.8000	-30.7961	390.596
217.6000	-30.8617	391.764
217.4000	-30.8868	392.942
217.2000	-30.8586	394.131
217.0000	-30.8546	395.331
216.8000	-30.8316	396.546
216.6000	-30.733	397.773
216.4000	-30.6336	399.015
216.2000	-30.5091	400.272
216.0000	-30.4323	401.545
215.8000	-30.3483	402.835
215.6000	-30.3115	404.14
215.4000	-30.2568	405.462
215.2000	-30.1346	406.805
215.0000	-29.9792	408.167
214.8000	-29.8456	409.552
214.6000	-29.6493	410.957
214.4000	-29.5483	412.384
214.2000	-29.475	413.833
214.0000	-29.3153	415.304
213.8000	-29.1552	416.8
213.6000	-29.0347	418.318
213.4000	-28.8435	419.861
213.2000	-28.6866	421.431
213.0000	-28.584	423.025
212.8000	-28.4331	424.647
212.6000	-28.2648	426.297
212.4000	-27.997	427.974
212.2000	-27.7772	429.68
212.0000	-27.5099	431.418
211.8000	-27.2546	433.186
211.6000	-27.0435	434.987
211.4000	-26.7938	436.821
211.2000	-26.4325	438.689
211.0000	-26.1205	440.591
210.8000	-25.8299	442.528
210.6000	-25.6076	444.5
210.4000	-25.3293	446.509
210.2000	-24.9791	448.552
210.0000	-24.697	450.631
209.8000	-24.4397	452.75
209.6000	-24.1239	454.906
209.4000	-23.6217	457.098
209.2000	-23.0817	459.325
209.0000	-22.6048	461.591
208.8000	-22.0896	463.897
208.6000	-21.7549	466.24
208.4000	-21.1435	468.623
208.2000	-20.5431	471.042
208.0000	-19.9838	473.496
207.8000	-19.3363	475.987
207.6000	-18.6871	478.516
207.4000	-18.1163	481.082
207.2000	-17.6237	483.68
207.0000	-17.0116	486.312
206.8000	-16.2913	488.978
206.6000	-15.5457	491.673
206.4000	-14.7266	494.421
206.2000	-13.85	497.242
206.0000	-13.1253	500.099
205.8000	-12.5272	502.983
205.6000	-11.9039	505.888
205.4000	-11.2345	508.8
205.2000	-10.3802	511.723
205.0000	-9.64091	514.645
204.8000	-8.68579	517.555
204.6000	-8.025	520.443
204.4000	-7.3145	523.329
204.2000	-6.91371	526.216
204.0000	-6.3779	529.099
203.8000	-5.71938	531.979
203.6000	-5.14748	534.848
203.4000	-4.42128	537.704
203.2000	-3.70906	540.544
203.0000	-2.89972	543.362
202.8000	-2.18463	546.158
202.6000	-1.70374	548.927
202.4000	-1.24508	551.663
202.2000	-0.868495	554.365
202.0000	-0.389155	557.028
201.8000	0.13434	559.648
201.6000	0.295702	562.235
201.4000	0.590506	564.819
201.2000	0.783656	567.423
201.0000	1.18538	570.017
200.8000	1.61311	572.482
200.6000	1.97242	574.777
200.4000	2.42923	576.995
200.2000	2.63604	579.144
200.0000	2.70356	581.223
199.8000	2.65897	583.225
199.6000	2.57747	585.101
199.4000	2.60311	586.889
199.2000	2.5016	588.599
199.0000	2.38949	590.232
198.8000	2.46533	591.804
198.6000	2.42438	593.311
198.4000	2.54011	594.758
198.2000	2.25672	596.146
198.0000	1.94305	597.489
197.8000	1.73033	598.766
197.6000	1.95719	599.968
197.4000	2.34013	601.1
197.2000	2.33555	602.162
197.0000	2.21904	603.16
196.8000	2.02829	604.097
196.6000	1.97582	604.978
196.4000	1.67287	605.812
196.2000	1.23103	606.599
196.0000	0.637942	607.332
195.8000	0.446817	608.008
195.6000	0.459064	608.614
195.4000	0.362754	609.148
195.2000	0.330075	609.626
195.0000	0.347177	610.051
194.8000	0.143204	610.401
194.6000	0.0432562	610.667
194.4000	-0.272372	610.838
194.2000	-0.559985	611.043
194.0000	-0.448139	611.361
193.8000	-0.396046	611.688
193.6000	-0.310244	611.969
193.4000	-0.250688	612.194
193.2000	-0.0960308	612.353
193.0000	0.0702049	612.467
192.8000	0.289365	612.568
192.6000	0.627701	612.666
192.4000	1.03255	612.775
192.2000	1.29152	612.908
192.0000	1.45379	613.08
191.8000	0.881579	613.262
191.6000	0.629619	613.418
191.4000	0.789637	613.528
191.2000	0.817124	613.583
191.0000	1.00175	613.591
190.8000	0.685187	613.596
190.6000	0.610172	613.636
190.4000	0.775255	613.729
190.2000	0.837461	613.893
190.0000	0.878864	614.138

##### Extended Information
[Comments]
Sample name	Top7_5_measure2
Comment	part_remod_resurf
User
Division
Company	EPFL

[Detailed Information]
Creation date	18.04.2018 18:26

Data array type	Linear data array * 2
Horizontal axis	Wavelength [nm]
Vertical axis(1)	CD [mdeg]
Vertical axis(2)	HT [V]
Start	250 nm
End	190 nm
Data interval	0.2 nm
Data points	301     

[Measurement Information]
Instrument Name	CD-Spectrometer
Model Name	J-815
Serial No.	A007961168

Accessory	PFD-425S
Accessory S/N	A001061180
  Temperature	25.49 C
  Control Sonsor	Holder
  Monitor Sensor	Holder
  Start Mode	Start immediately
  Cell Length	10 mm

Photometric Mode	CD, HT
Measure Range	250 - 190 nm
Data pitch	0.2 nm
Sensitivity	Standard
D.I.T.	8 sec
Bandwidth	1.00 nm
Start Mode	Immediately
Scanning Speed	50 nm/min
Baseline Correction	None
Shutter Control	Auto
PMT Voltage	Auto
Accumulations	2
Concentration	500 mmol/L

