TITLE	kx8_3_d1_TCEP_Melt
DATA TYPE	
ORIGIN	JASCO
OWNER	
DATE	17/09/12
TIME	17:22:26
SPECTROMETER/DATA SYSTEM	
LOCALE	2055
RESOLUTION	
DELTAX	-0.2
XUNITS	NANOMETERS
YUNITS	CD [mdeg]
Y2UNITS	HT [V]
FIRSTX	  250.0000
LASTX	  195.0000
NPOINTS	     276
FIRSTY	     0.04996
MAXY	     0.05141
MINY	   -17.33539
XYDATA
250.0000	0.0499586	307.372
249.8000	0.0514132	307.652
249.6000	0.0311569	307.93
249.4000	0.00386944	308.211
249.2000	-0.0156334	308.489
249.0000	-0.0426298	308.769
248.8000	-0.055464	309.046
248.6000	-0.0529627	309.325
248.4000	-0.0550808	309.605
248.2000	-0.0771997	309.888
248.0000	-0.098275	310.17
247.8000	-0.122714	310.456
247.6000	-0.127179	310.74
247.4000	-0.158428	311.028
247.2000	-0.196331	311.317
247.0000	-0.227583	311.603
246.8000	-0.249652	311.894
246.6000	-0.280678	312.18
246.4000	-0.308675	312.471
246.2000	-0.338171	312.762
246.0000	-0.339245	313.055
245.8000	-0.374307	313.351
245.6000	-0.405775	313.649
245.4000	-0.435705	313.949
245.2000	-0.470886	314.25
245.0000	-0.500709	314.555
244.8000	-0.522477	314.864
244.6000	-0.573314	315.173
244.4000	-0.618752	315.485
244.2000	-0.62878	315.801
244.0000	-0.683634	316.117
243.8000	-0.737472	316.443
243.6000	-0.792841	316.768
243.4000	-0.840593	317.098
243.2000	-0.88367	317.435
243.0000	-0.92584	317.773
242.8000	-0.986341	318.116
242.6000	-1.03565	318.458
242.4000	-1.08856	318.807
242.2000	-1.12453	319.161
242.0000	-1.18406	319.521
241.8000	-1.24797	319.888
241.6000	-1.30186	320.254
241.4000	-1.34997	320.625
241.2000	-1.39243	321.003
241.0000	-1.45273	321.385
240.8000	-1.53391	321.778
240.6000	-1.5924	322.173
240.4000	-1.70094	322.574
240.2000	-1.79884	322.981
240.0000	-1.89209	323.393
239.8000	-1.97678	323.807
239.6000	-2.05248	324.232
239.4000	-2.15566	324.662
239.2000	-2.25306	325.099
239.0000	-2.35812	325.542
238.8000	-2.46736	325.991
238.6000	-2.56482	326.451
238.4000	-2.6483	326.917
238.2000	-2.75991	327.39
238.0000	-2.85145	327.874
237.8000	-2.96646	328.362
237.6000	-3.13364	328.86
237.4000	-3.25761	329.365
237.2000	-3.39354	329.877
237.0000	-3.5157	330.398
236.8000	-3.65603	330.925
236.6000	-3.76866	331.463
236.4000	-3.91455	332.007
236.2000	-4.07222	332.563
236.0000	-4.23177	333.124
235.8000	-4.36977	333.696
235.6000	-4.51187	334.275
235.4000	-4.66383	334.859
235.2000	-4.80655	335.455
235.0000	-4.97418	336.055
234.8000	-5.15708	336.668
234.6000	-5.31841	337.289
234.4000	-5.48448	337.918
234.2000	-5.68677	338.556
234.0000	-5.89749	339.205
233.8000	-6.05882	339.86
233.6000	-6.20974	340.523
233.4000	-6.35334	341.197
233.2000	-6.54717	341.878
233.0000	-6.73877	342.564
232.8000	-6.95269	343.251
232.6000	-7.13294	343.948
232.4000	-7.28626	344.652
232.2000	-7.46523	345.367
232.0000	-7.66303	346.087
231.8000	-7.86979	346.817
231.6000	-8.03933	347.554
231.4000	-8.22714	348.296
231.2000	-8.41282	349.05
231.0000	-8.57435	349.809
230.8000	-8.75021	350.577
230.6000	-8.93899	351.352
230.4000	-9.09833	352.132
230.2000	-9.29402	352.916
230.0000	-9.47883	353.708
229.8000	-9.66234	354.501
229.6000	-9.84857	355.303
229.4000	-9.97845	356.108
229.2000	-10.127	356.913
229.0000	-10.2965	357.729
228.8000	-10.4606	358.546
228.6000	-10.6652	359.369
228.4000	-10.8356	360.199
228.2000	-11.0064	361.027
228.0000	-11.2095	361.867
227.8000	-11.3955	362.705
227.6000	-11.5184	363.545
227.4000	-11.6317	364.391
227.2000	-11.7839	365.239
227.0000	-11.934	366.09
226.8000	-12.092	366.949
226.6000	-12.1755	367.812
226.4000	-12.2841	368.685
226.2000	-12.4078	369.569
226.0000	-12.5537	370.456
225.8000	-12.727	371.351
225.6000	-12.8605	372.244
225.4000	-12.9575	373.143
225.2000	-13.0486	374.045
225.0000	-13.1734	374.952
224.8000	-13.3065	375.862
224.6000	-13.4055	376.776
224.4000	-13.5217	377.7
224.2000	-13.6457	378.618
224.0000	-13.6955	379.551
223.8000	-13.7946	380.485
223.6000	-13.8569	381.425
223.4000	-13.9123	382.379
223.2000	-13.9843	383.333
223.0000	-14.0089	384.295
222.8000	-14.0752	385.266
222.6000	-14.1456	386.243
222.4000	-14.2306	387.232
222.2000	-14.2871	388.228
222.0000	-14.3675	389.227
221.8000	-14.4089	390.234
221.6000	-14.4188	391.255
221.4000	-14.4242	392.279
221.2000	-14.4241	393.312
221.0000	-14.4655	394.35
220.8000	-14.5071	395.394
220.6000	-14.5112	396.449
220.4000	-14.4843	397.515
220.2000	-14.4327	398.584
220.0000	-14.4485	399.66
219.8000	-14.4468	400.744
219.6000	-14.436	401.831
219.4000	-14.4559	402.93
219.2000	-14.4254	404.035
219.0000	-14.4043	405.149
218.8000	-14.3521	406.277
218.6000	-14.3474	407.407
218.4000	-14.3369	408.556
218.2000	-14.331	409.712
218.0000	-14.295	410.876
217.8000	-14.3057	412.054
217.6000	-14.3275	413.244
217.4000	-14.3418	414.441
217.2000	-14.3428	415.654
217.0000	-14.3323	416.875
216.8000	-14.2693	418.104
216.6000	-14.2441	419.356
216.4000	-14.2294	420.616
216.2000	-14.1936	421.889
216.0000	-14.2445	423.179
215.8000	-14.2538	424.485
215.6000	-14.2468	425.803
215.4000	-14.2469	427.137
215.2000	-14.2013	428.492
215.0000	-14.1794	429.865
214.8000	-14.1394	431.256
214.6000	-14.1933	432.666
214.4000	-14.3059	434.099
214.2000	-14.3989	435.552
214.0000	-14.4743	437.033
213.8000	-14.5199	438.53
213.6000	-14.626	440.049
213.4000	-14.7835	441.595
213.2000	-14.8516	443.169
213.0000	-15.0162	444.766
212.8000	-15.1462	446.393
212.6000	-15.2467	448.045
212.4000	-15.2803	449.725
212.2000	-15.3857	451.438
212.0000	-15.5262	453.183
211.8000	-15.6405	454.953
211.6000	-15.727	456.757
211.4000	-15.8416	458.595
211.2000	-15.9504	460.472
211.0000	-15.9844	462.382
210.8000	-16.0953	464.332
210.6000	-16.2123	466.32
210.4000	-16.3162	468.35
210.2000	-16.515	470.421
210.0000	-16.6046	472.533
209.8000	-16.7685	474.695
209.6000	-16.8853	476.903
209.4000	-16.9902	479.159
209.2000	-16.9204	481.458
209.0000	-17.0952	483.809
208.8000	-17.2041	486.218
208.6000	-17.2286	488.677
208.4000	-17.2889	491.197
208.2000	-17.3354	493.774
208.0000	-17.0235	496.415
207.8000	-16.8144	499.122
207.6000	-16.5401	501.896
207.4000	-16.3476	504.742
207.2000	-16.2096	507.663
207.0000	-16.1798	510.663
206.8000	-15.9268	513.746
206.6000	-15.9309	516.909
206.4000	-15.7909	520.16
206.2000	-15.5143	523.497
206.0000	-15.2436	526.938
205.8000	-15.0074	530.47
205.6000	-14.6524	534.096
205.4000	-14.475	537.821
205.2000	-14.2245	541.648
205.0000	-13.6398	545.584
204.8000	-13.1494	549.624
204.6000	-12.733	553.769
204.4000	-12.3037	558.022
204.2000	-11.9751	562.371
204.0000	-11.6962	566.814
203.8000	-11.0887	571.347
203.6000	-10.3769	575.957
203.4000	-9.81227	580.638
203.2000	-9.32832	585.373
203.0000	-8.78694	590.147
202.8000	-8.50322	594.945
202.6000	-8.45729	599.757
202.4000	-7.70197	604.564
202.2000	-6.78579	609.351
202.0000	-6.43469	614.099
201.8000	-6.11474	618.794
201.6000	-5.50147	623.421
201.4000	-5.06635	627.972
201.2000	-4.78866	632.43
201.0000	-4.62374	636.785
200.8000	-4.47113	641.027
200.6000	-4.05758	645.15
200.4000	-3.46903	649.148
200.2000	-3.36588	653.005
200.0000	-3.31329	656.723
199.8000	-2.71014	660.296
199.6000	-2.40877	663.716
199.4000	-2.57049	666.974
199.2000	-2.28219	670.072
199.0000	-1.98759	673.008
198.8000	-1.4091	675.775
198.6000	-0.942983	678.371
198.4000	-0.693848	680.784
198.2000	-0.674459	683.016
198.0000	-0.650715	685.059
197.8000	-0.730696	686.915
197.6000	-0.823198	688.591
197.4000	-0.385667	690.091
197.2000	-0.554359	691.413
197.0000	-1.29725	692.567
196.8000	-1.72047	693.56
196.6000	-1.55572	694.404
196.4000	-1.54093	695.109
196.2000	-1.31403	695.688
196.0000	-0.775153	696.159
195.8000	-0.582435	696.532
195.6000	-0.852131	696.816
195.4000	-0.766104	697.028
195.2000	-0.489907	697.181
195.0000	-0.505204	697.286

##### Extended Information
[Comments]
Sample name	kx8_3_d1_TCEP_Melt
Comment
User
Division
Company	EPFL

[Detailed Information]
Creation date	12.09.2017 17:22

Data array type	Linear data array * 2
Horizontal axis	Wavelength [nm]
Vertical axis(1)	CD [mdeg]
Vertical axis(2)	HT [V]
Start	250 nm
End	195 nm
Data interval	0.2 nm
Data points	276     

[Measurement Information]
Instrument Name	CD-Spectrometer
Model Name	J-815
Serial No.	A007961168

Accessory	PFD-425S
Accessory S/N	A001061180
  Temperature	20.00 C
  Control Sonsor	Holder
  Monitor Sensor	Holder
  Cell Length	10 mm

Photometric Mode	CD, HT
Measure Range	250 - 195 nm
Data pitch	0.2 nm
Sensitivity	Standard
D.I.T.	8 sec
Bandwidth	1.00 nm
Start Mode	Immediately
Scanning Speed	50 nm/min
Baseline Correction	None
Shutter Control	Auto
PMT Voltage	Auto
Accumulations	2
End Temperature.	20 C
Start Temperature.	90 C
Temperature. Interval	2 C
Ramp Rate	2 C/min

