TITLE	kx8_3_d1_TCEP_Melt
DATA TYPE	
ORIGIN	JASCO
OWNER	
DATE	17/09/12
TIME	17:22:26
SPECTROMETER/DATA SYSTEM	
LOCALE	2055
RESOLUTION	
DELTAX	-0.2
XUNITS	NANOMETERS
YUNITS	CD [mdeg]
Y2UNITS	HT [V]
FIRSTX	  250.0000
LASTX	  195.0000
NPOINTS	     276
FIRSTY	    -0.05493
MAXY	     1.36252
MINY	   -15.57713
XYDATA
250.0000	-0.0549322	306.919
249.8000	-0.0381075	307.196
249.6000	-0.0474983	307.475
249.4000	-0.0632938	307.754
249.2000	-0.0897339	308.031
249.0000	-0.102779	308.316
248.8000	-0.11653	308.595
248.6000	-0.10916	308.88
248.4000	-0.1292	309.164
248.2000	-0.173042	309.446
248.0000	-0.235075	309.731
247.8000	-0.317054	310.013
247.6000	-0.372711	310.301
247.4000	-0.383166	310.589
247.2000	-0.381734	310.877
247.0000	-0.383509	311.166
246.8000	-0.389767	311.454
246.6000	-0.400333	311.744
246.4000	-0.442577	312.036
246.2000	-0.46372	312.33
246.0000	-0.461596	312.622
245.8000	-0.471546	312.915
245.6000	-0.494925	313.211
245.4000	-0.519867	313.511
245.2000	-0.518597	313.813
245.0000	-0.51884	314.117
244.8000	-0.489502	314.424
244.6000	-0.515233	314.734
244.4000	-0.535533	315.048
244.2000	-0.580199	315.364
244.0000	-0.594517	315.688
243.8000	-0.645783	316.01
243.6000	-0.684594	316.338
243.4000	-0.733446	316.667
243.2000	-0.80693	317.002
243.0000	-0.856738	317.341
242.8000	-0.917536	317.685
242.6000	-0.962008	318.031
242.4000	-0.995529	318.385
242.2000	-1.04159	318.74
242.0000	-1.12541	319.098
241.8000	-1.18191	319.463
241.6000	-1.21525	319.831
241.4000	-1.24971	320.208
241.2000	-1.28624	320.592
241.0000	-1.33005	320.974
240.8000	-1.40418	321.364
240.6000	-1.4773	321.76
240.4000	-1.56403	322.161
240.2000	-1.6297	322.571
240.0000	-1.71138	322.983
239.8000	-1.75985	323.404
239.6000	-1.81671	323.832
239.4000	-1.89307	324.265
239.2000	-1.99475	324.705
239.0000	-2.04783	325.153
238.8000	-2.10083	325.61
238.6000	-2.18879	326.074
238.4000	-2.28369	326.543
238.2000	-2.42705	327.018
238.0000	-2.55476	327.504
237.8000	-2.6575	327.995
237.6000	-2.73697	328.493
237.4000	-2.86056	328.999
237.2000	-2.9745	329.518
237.0000	-3.07374	330.037
236.8000	-3.17651	330.576
236.6000	-3.27328	331.119
236.4000	-3.37988	331.671
236.2000	-3.46012	332.229
236.0000	-3.56385	332.795
235.8000	-3.70216	333.372
235.6000	-3.82215	333.956
235.4000	-3.90549	334.55
235.2000	-4.00826	335.148
235.0000	-4.12132	335.756
234.8000	-4.22899	336.373
234.6000	-4.34337	336.999
234.4000	-4.45125	337.638
234.2000	-4.52917	338.284
234.0000	-4.62423	338.943
233.8000	-4.73366	339.609
233.6000	-4.87604	340.283
233.4000	-5.00354	340.964
233.2000	-5.13552	341.654
233.0000	-5.27619	342.348
232.8000	-5.37675	343.049
232.6000	-5.48687	343.762
232.4000	-5.61195	344.479
232.2000	-5.74693	345.206
232.0000	-5.88701	345.941
231.8000	-6.02191	346.687
231.6000	-6.15585	347.441
231.4000	-6.26226	348.204
231.2000	-6.38761	348.978
231.0000	-6.52313	349.758
230.8000	-6.6645	350.547
230.6000	-6.77787	351.342
230.4000	-6.92659	352.146
230.2000	-7.04213	352.948
230.0000	-7.14187	353.764
229.8000	-7.24621	354.58
229.6000	-7.36526	355.407
229.4000	-7.47018	356.239
229.2000	-7.54664	357.079
229.0000	-7.6295	357.92
228.8000	-7.70885	358.767
228.6000	-7.80022	359.626
228.4000	-7.8659	360.487
228.2000	-7.94362	361.352
228.0000	-8.02228	362.224
227.8000	-8.12122	363.099
227.6000	-8.22014	363.98
227.4000	-8.35408	364.867
227.2000	-8.4508	365.758
227.0000	-8.5477	366.658
226.8000	-8.62785	367.562
226.6000	-8.73221	368.471
226.4000	-8.84527	369.387
226.2000	-8.98029	370.311
226.0000	-9.08967	371.241
225.8000	-9.18252	372.178
225.6000	-9.28806	373.118
225.4000	-9.36288	374.066
225.2000	-9.4148	375.019
225.0000	-9.4496	375.975
224.8000	-9.48248	376.938
224.6000	-9.5751	377.906
224.4000	-9.63365	378.875
224.2000	-9.68554	379.855
224.0000	-9.72671	380.842
223.8000	-9.74752	381.832
223.6000	-9.747	382.835
223.4000	-9.7815	383.839
223.2000	-9.83376	384.859
223.0000	-9.8957	385.882
222.8000	-9.95039	386.909
222.6000	-10.0001	387.948
222.4000	-10.1036	388.993
222.2000	-10.1885	390.045
222.0000	-10.1917	391.11
221.8000	-10.2121	392.177
221.6000	-10.2358	393.257
221.4000	-10.3392	394.345
221.2000	-10.3453	395.439
221.0000	-10.3423	396.539
220.8000	-10.3399	397.647
220.6000	-10.3639	398.761
220.4000	-10.4334	399.882
220.2000	-10.4606	401.012
220.0000	-10.5013	402.153
219.8000	-10.5228	403.303
219.6000	-10.4645	404.462
219.4000	-10.5456	405.631
219.2000	-10.5627	406.811
219.0000	-10.5894	408
218.8000	-10.592	409.197
218.6000	-10.6503	410.407
218.4000	-10.6611	411.628
218.2000	-10.7287	412.855
218.0000	-10.7408	414.093
217.8000	-10.7221	415.345
217.6000	-10.7731	416.606
217.4000	-10.8344	417.881
217.2000	-10.8989	419.167
217.0000	-10.8613	420.467
216.8000	-10.8879	421.781
216.6000	-10.9023	423.107
216.4000	-10.9595	424.456
216.2000	-10.9302	425.815
216.0000	-10.9743	427.193
215.8000	-10.9911	428.588
215.6000	-10.9494	429.997
215.4000	-11.0116	431.429
215.2000	-11.0865	432.878
215.0000	-11.1261	434.35
214.8000	-11.2078	435.841
214.6000	-11.2757	437.359
214.4000	-11.3867	438.904
214.2000	-11.4512	440.471
214.0000	-11.5712	442.07
213.8000	-11.5582	443.689
213.6000	-11.6614	445.338
213.4000	-11.7543	447.02
213.2000	-11.7951	448.732
213.0000	-11.8967	450.478
212.8000	-11.9142	452.251
212.6000	-11.9601	454.058
212.4000	-11.9946	455.898
212.2000	-12.159	457.777
212.0000	-12.2802	459.691
211.8000	-12.3581	461.652
211.6000	-12.4561	463.652
211.4000	-12.5524	465.702
211.2000	-12.6505	467.802
211.0000	-12.7614	469.947
210.8000	-12.8533	472.142
210.6000	-12.9761	474.394
210.4000	-13.2439	476.696
210.2000	-13.4782	479.06
210.0000	-13.7284	481.484
209.8000	-13.8721	483.973
209.6000	-13.9971	486.53
209.4000	-14.2697	489.15
209.2000	-14.3726	491.839
209.0000	-14.6323	494.606
208.8000	-14.7594	497.443
208.6000	-14.9072	500.368
208.4000	-15.1676	503.375
208.2000	-15.1726	506.466
208.0000	-15.1838	509.647
207.8000	-15.1564	512.917
207.6000	-15.1468	516.292
207.4000	-15.1266	519.77
207.2000	-15.1241	523.358
207.0000	-15.2612	527.057
206.8000	-15.5771	530.875
206.6000	-15.3572	534.813
206.4000	-15.1598	538.866
206.2000	-14.7262	543.047
206.0000	-14.5649	547.354
205.8000	-14.1799	551.789
205.6000	-13.927	556.351
205.4000	-13.6222	561.026
205.2000	-13.2193	565.823
205.0000	-12.7709	570.734
204.8000	-12.4876	575.741
204.6000	-12.0012	580.848
204.4000	-11.8187	586.032
204.2000	-11.6929	591.28
204.0000	-11.4251	596.575
203.8000	-10.9172	601.896
203.6000	-10.3824	607.228
203.4000	-10.2355	612.546
203.2000	-10.0767	617.831
203.0000	-9.79149	623.063
202.8000	-9.31275	628.235
202.6000	-9.16928	633.324
202.4000	-8.08304	638.326
202.2000	-7.28819	643.227
202.0000	-6.6469	648.003
201.8000	-6.33873	652.654
201.6000	-6.02642	657.171
201.4000	-5.57352	661.549
201.2000	-5.00372	665.781
201.0000	-4.80752	669.849
200.8000	-4.5557	673.756
200.6000	-4.0405	677.494
200.4000	-3.45861	681.057
200.2000	-2.53173	684.441
200.0000	-2.08281	687.633
199.8000	-1.97018	690.634
199.6000	-1.69554	693.441
199.4000	-1.20992	696.052
199.2000	-0.767841	698.462
199.0000	-0.484308	700.667
198.8000	-0.0659012	702.676
198.6000	-0.515743	704.478
198.4000	-0.830108	706.083
198.2000	-1.40136	707.495
198.0000	-1.55945	708.719
197.8000	-1.7121	709.767
197.6000	-1.65488	710.65
197.4000	-1.73156	711.385
197.2000	-1.6055	711.988
197.0000	-1.23139	712.473
196.8000	-0.984294	712.854
196.6000	-0.0726534	713.15
196.4000	0.597757	713.375
196.2000	0.778276	713.542
196.0000	1.08137	713.661
195.8000	0.709523	713.744
195.6000	0.701321	713.8
195.4000	0.342615	713.835
195.2000	0.778606	713.86
195.0000	1.36252	713.873

##### Extended Information
[Comments]
Sample name	kx8_3_d1_TCEP_Melt
Comment
User
Division
Company	EPFL

[Detailed Information]
Creation date	12.09.2017 17:22

Data array type	Linear data array * 2
Horizontal axis	Wavelength [nm]
Vertical axis(1)	CD [mdeg]
Vertical axis(2)	HT [V]
Start	250 nm
End	195 nm
Data interval	0.2 nm
Data points	276     

[Measurement Information]
Instrument Name	CD-Spectrometer
Model Name	J-815
Serial No.	A007961168

Accessory	PFD-425S
Accessory S/N	A001061180
  Temperature	20.00 C
  Control Sonsor	Holder
  Monitor Sensor	Holder
  Cell Length	10 mm

Photometric Mode	CD, HT
Measure Range	250 - 195 nm
Data pitch	0.2 nm
Sensitivity	Standard
D.I.T.	8 sec
Bandwidth	1.00 nm
Start Mode	Immediately
Scanning Speed	50 nm/min
Baseline Correction	None
Shutter Control	Auto
PMT Voltage	Auto
Accumulations	2
End Temperature.	20 C
Start Temperature.	90 C
Temperature. Interval	2 C
Ramp Rate	2 C/min

