TITLE	kx8_3_d1_TCEP_Melt
DATA TYPE	
ORIGIN	JASCO
OWNER	
DATE	17/09/12
TIME	17:22:26
SPECTROMETER/DATA SYSTEM	
LOCALE	2055
RESOLUTION	
DELTAX	-0.2
XUNITS	NANOMETERS
YUNITS	CD [mdeg]
Y2UNITS	HT [V]
FIRSTX	  250.0000
LASTX	  195.0000
NPOINTS	     276
FIRSTY	     0.01521
MAXY	     1.99302
MINY	   -12.42535
XYDATA
250.0000	0.0152058	307.008
249.8000	0.00854168	307.29
249.6000	0.0102192	307.574
249.4000	0.0104406	307.856
249.2000	-0.0190611	308.146
249.0000	-0.0436241	308.43
248.8000	-0.0766073	308.718
248.6000	-0.0965042	309.004
248.4000	-0.127564	309.291
248.2000	-0.152406	309.579
248.0000	-0.155925	309.865
247.8000	-0.164235	310.153
247.6000	-0.18052	310.44
247.4000	-0.204425	310.734
247.2000	-0.225237	311.024
247.0000	-0.247691	311.317
246.8000	-0.260815	311.611
246.6000	-0.239164	311.908
246.4000	-0.233524	312.207
246.2000	-0.231779	312.507
246.0000	-0.270359	312.805
245.8000	-0.280595	313.106
245.6000	-0.294622	313.408
245.4000	-0.331577	313.712
245.2000	-0.363976	314.018
245.0000	-0.382996	314.327
244.8000	-0.414474	314.641
244.6000	-0.42539	314.959
244.4000	-0.486058	315.281
244.2000	-0.538346	315.606
244.0000	-0.577979	315.936
243.8000	-0.612384	316.269
243.6000	-0.674797	316.603
243.4000	-0.724362	316.943
243.2000	-0.752356	317.285
243.0000	-0.798543	317.631
242.8000	-0.866969	317.98
242.6000	-0.907007	318.333
242.4000	-0.949801	318.692
242.2000	-0.989893	319.055
242.0000	-1.02735	319.424
241.8000	-1.07638	319.797
241.6000	-1.10544	320.174
241.4000	-1.14933	320.556
241.2000	-1.2082	320.948
241.0000	-1.2864	321.343
240.8000	-1.35424	321.743
240.6000	-1.41541	322.152
240.4000	-1.46859	322.566
240.2000	-1.51398	322.984
240.0000	-1.59329	323.41
239.8000	-1.68159	323.838
239.6000	-1.77514	324.276
239.4000	-1.83647	324.72
239.2000	-1.9044	325.17
239.0000	-1.9723	325.631
238.8000	-1.99311	326.099
238.6000	-2.02226	326.573
238.4000	-2.0946	327.056
238.2000	-2.19839	327.545
238.0000	-2.29549	328.044
237.8000	-2.37491	328.547
237.6000	-2.45085	329.061
237.4000	-2.52708	329.584
237.2000	-2.61744	330.113
237.0000	-2.69865	330.653
236.8000	-2.78082	331.201
236.6000	-2.86354	331.761
236.4000	-2.92381	332.33
236.2000	-2.98744	332.904
236.0000	-3.04021	333.489
235.8000	-3.10858	334.083
235.6000	-3.184	334.68
235.4000	-3.28365	335.29
235.2000	-3.34443	335.906
235.0000	-3.43227	336.534
234.8000	-3.49815	337.174
234.6000	-3.58541	337.819
234.4000	-3.6529	338.478
234.2000	-3.73764	339.144
234.0000	-3.83693	339.82
233.8000	-3.93444	340.509
233.6000	-4.0172	341.207
233.4000	-4.13114	341.913
233.2000	-4.18134	342.628
233.0000	-4.23534	343.346
232.8000	-4.30788	344.073
232.6000	-4.41651	344.809
232.4000	-4.5156	345.555
232.2000	-4.60539	346.313
232.0000	-4.74388	347.081
231.8000	-4.86809	347.858
231.6000	-4.95283	348.645
231.4000	-5.02137	349.443
231.2000	-5.13309	350.251
231.0000	-5.20943	351.07
230.8000	-5.27997	351.897
230.6000	-5.36348	352.729
230.4000	-5.42775	353.569
230.2000	-5.51001	354.42
230.0000	-5.63312	355.274
229.8000	-5.76656	356.137
229.6000	-5.90464	357.009
229.4000	-6.02832	357.89
229.2000	-6.11489	358.774
229.0000	-6.19846	359.667
228.8000	-6.28779	360.568
228.6000	-6.38273	361.48
228.4000	-6.4807	362.392
228.2000	-6.5991	363.317
228.0000	-6.6574	364.249
227.8000	-6.7257	365.184
227.6000	-6.80264	366.127
227.4000	-6.83629	367.072
227.2000	-6.84517	368.024
227.0000	-6.85892	368.985
226.8000	-6.87305	369.95
226.6000	-6.95183	370.922
226.4000	-7.05709	371.907
226.2000	-7.14485	372.902
226.0000	-7.19253	373.9
225.8000	-7.30063	374.905
225.6000	-7.37221	375.915
225.4000	-7.40942	376.928
225.2000	-7.44931	377.948
225.0000	-7.50788	378.976
224.8000	-7.53125	380.011
224.6000	-7.53926	381.051
224.4000	-7.57289	382.096
224.2000	-7.65232	383.147
224.0000	-7.71185	384.212
223.8000	-7.81623	385.281
223.6000	-7.84647	386.361
223.4000	-7.84011	387.447
223.2000	-7.85513	388.543
223.0000	-7.86583	389.65
222.8000	-7.88359	390.76
222.6000	-7.96777	391.879
222.4000	-8.05013	393.008
222.2000	-8.0127	394.143
222.0000	-8.02713	395.288
221.8000	-8.06846	396.441
221.6000	-8.10405	397.602
221.4000	-8.15175	398.769
221.2000	-8.17152	399.946
221.0000	-8.12215	401.129
220.8000	-8.16688	402.328
220.6000	-8.2156	403.536
220.4000	-8.28193	404.746
220.2000	-8.37004	405.972
220.0000	-8.42447	407.208
219.8000	-8.45931	408.445
219.6000	-8.45269	409.699
219.4000	-8.47652	410.966
219.2000	-8.45261	412.241
219.0000	-8.42537	413.527
218.8000	-8.44689	414.826
218.6000	-8.45131	416.135
218.4000	-8.45206	417.455
218.2000	-8.54439	418.783
218.0000	-8.65445	420.124
217.8000	-8.68341	421.478
217.6000	-8.61293	422.846
217.4000	-8.62047	424.227
217.2000	-8.6081	425.62
217.0000	-8.64264	427.028
216.8000	-8.73094	428.453
216.6000	-8.78476	429.894
216.4000	-8.73755	431.353
216.2000	-8.71295	432.836
216.0000	-8.69326	434.339
215.8000	-8.62274	435.861
215.6000	-8.66307	437.407
215.4000	-8.78028	438.973
215.2000	-8.76382	440.563
215.0000	-8.74635	442.179
214.8000	-8.61601	443.823
214.6000	-8.66622	445.498
214.4000	-8.83557	447.201
214.2000	-8.86149	448.935
214.0000	-8.87662	450.705
213.8000	-8.99767	452.507
213.6000	-9.02422	454.345
213.4000	-9.08299	456.225
213.2000	-9.04008	458.145
213.0000	-8.99621	460.103
212.8000	-9.05469	462.109
212.6000	-9.1114	464.154
212.4000	-9.16976	466.25
212.2000	-9.26596	468.398
212.0000	-9.35753	470.596
211.8000	-9.43507	472.851
211.6000	-9.46834	475.166
211.4000	-9.36581	477.543
211.2000	-9.37544	479.986
211.0000	-9.51293	482.497
210.8000	-9.63117	485.074
210.6000	-9.79789	487.729
210.4000	-9.82094	490.469
210.2000	-9.87606	493.287
210.0000	-9.95483	496.195
209.8000	-10.0267	499.193
209.6000	-10.2126	502.279
209.4000	-10.3096	505.461
209.2000	-10.4489	508.741
209.0000	-10.4927	512.127
208.8000	-10.5434	515.629
208.6000	-10.5996	519.244
208.4000	-10.8145	522.982
208.2000	-11.1218	526.832
208.0000	-11.4647	530.812
207.8000	-11.646	534.921
207.6000	-11.5833	539.162
207.4000	-11.4351	543.545
207.2000	-11.9455	548.054
207.0000	-12.2045	552.7
206.8000	-12.2371	557.486
206.6000	-12.0257	562.399
206.4000	-12.0451	567.436
206.2000	-11.8852	572.591
206.0000	-12.0387	577.857
205.8000	-12.3851	583.215
205.6000	-12.4253	588.656
205.4000	-11.8812	594.162
205.2000	-11.1194	599.713
205.0000	-10.9034	605.288
204.8000	-10.6338	610.872
204.6000	-10.1647	616.439
204.4000	-9.54456	621.971
204.2000	-8.88957	627.453
204.0000	-8.47343	632.861
203.8000	-7.95172	638.181
203.6000	-7.58287	643.399
203.4000	-7.45115	648.5
203.2000	-7.28314	653.474
203.0000	-6.78585	658.311
202.8000	-6.51467	663.006
202.6000	-6.16455	667.548
202.4000	-5.88604	671.938
202.2000	-5.61805	676.163
202.0000	-5.10698	680.222
201.8000	-4.62931	684.114
201.6000	-4.42787	687.811
201.4000	-3.76256	691.318
201.2000	-2.84	694.632
201.0000	-2.06222	697.729
200.8000	-1.61347	700.617
200.6000	-0.339598	703.297
200.4000	0.912523	705.763
200.2000	1.43857	708.01
200.0000	1.29593	710.04
199.8000	1.33173	711.86
199.6000	1.1483	713.472
199.4000	1.00734	714.881
199.2000	1.49933	716.107
199.0000	1.99302	717.157
198.8000	1.88267	718.037
198.6000	1.28256	718.766
198.4000	1.00783	719.36
198.2000	1.04982	719.836
198.0000	1.3165	720.209
197.8000	0.897214	720.495
197.6000	0.619913	720.708
197.4000	0.559236	720.865
197.2000	0.394846	720.977
197.0000	0.655698	721.057
196.8000	0.7506	721.109
196.6000	0.920435	721.141
196.4000	0.483587	721.158
196.2000	0.0742304	721.164
196.0000	-0.141962	721.168
195.8000	-0.177085	721.163
195.6000	-0.548767	721.152
195.4000	-0.843331	721.131
195.2000	-1.34138	721.092
195.0000	-1.00005	721.063

##### Extended Information
[Comments]
Sample name	kx8_3_d1_TCEP_Melt
Comment
User
Division
Company	EPFL

[Detailed Information]
Creation date	12.09.2017 17:22

Data array type	Linear data array * 2
Horizontal axis	Wavelength [nm]
Vertical axis(1)	CD [mdeg]
Vertical axis(2)	HT [V]
Start	250 nm
End	195 nm
Data interval	0.2 nm
Data points	276     

[Measurement Information]
Instrument Name	CD-Spectrometer
Model Name	J-815
Serial No.	A007961168

Accessory	PFD-425S
Accessory S/N	A001061180
  Temperature	20.00 C
  Control Sonsor	Holder
  Monitor Sensor	Holder
  Cell Length	10 mm

Photometric Mode	CD, HT
Measure Range	250 - 195 nm
Data pitch	0.2 nm
Sensitivity	Standard
D.I.T.	8 sec
Bandwidth	1.00 nm
Start Mode	Immediately
Scanning Speed	50 nm/min
Baseline Correction	None
Shutter Control	Auto
PMT Voltage	Auto
Accumulations	2
End Temperature.	20 C
Start Temperature.	90 C
Temperature. Interval	2 C
Ramp Rate	2 C/min

