TITLE	Mota_1kx8_d03_noTCEP
DATA TYPE	
ORIGIN	JASCO
OWNER	
DATE	17/07/20
TIME	14:49:17
SPECTROMETER/DATA SYSTEM	
LOCALE	2055
RESOLUTION	
DELTAX	-0.2
XUNITS	NANOMETERS
YUNITS	CD [mdeg]
Y2UNITS	HT [V]
FIRSTX	  250.0000
LASTX	  195.0000
NPOINTS	     276
FIRSTY	    -0.05513
MAXY	     0.86823
MINY	   -43.61884
XYDATA
250.0000	-0.0551323	310.85
249.8000	-0.0670504	311.137
249.6000	-0.0794123	311.427
249.4000	-0.0939703	311.719
249.2000	-0.144169	312.012
249.0000	-0.20664	312.312
248.8000	-0.269942	312.61
248.6000	-0.303519	312.91
248.4000	-0.33339	313.213
248.2000	-0.373202	313.516
248.0000	-0.421037	313.824
247.8000	-0.476549	314.134
247.6000	-0.529496	314.447
247.4000	-0.577555	314.763
247.2000	-0.634838	315.083
247.0000	-0.692506	315.402
246.8000	-0.755771	315.723
246.6000	-0.831147	316.047
246.4000	-0.912505	316.375
246.2000	-0.993059	316.706
246.0000	-1.06714	317.043
245.8000	-1.16959	317.384
245.6000	-1.25269	317.727
245.4000	-1.36474	318.079
245.2000	-1.46022	318.434
245.0000	-1.5445	318.798
244.8000	-1.63197	319.164
244.6000	-1.73772	319.535
244.4000	-1.85548	319.911
244.2000	-1.9551	320.294
244.0000	-2.0573	320.686
243.8000	-2.15207	321.084
243.6000	-2.27966	321.488
243.4000	-2.39241	321.905
243.2000	-2.51348	322.328
243.0000	-2.69463	322.759
242.8000	-2.84704	323.199
242.6000	-3.01574	323.644
242.4000	-3.15081	324.1
242.2000	-3.29622	324.565
242.0000	-3.47767	325.042
241.8000	-3.68398	325.527
241.6000	-3.87181	326.026
241.4000	-4.0656	326.537
241.2000	-4.26516	327.059
241.0000	-4.49343	327.595
240.8000	-4.7475	328.142
240.6000	-4.98889	328.7
240.4000	-5.24293	329.274
240.2000	-5.47789	329.865
240.0000	-5.7174	330.467
239.8000	-6.0031	331.088
239.6000	-6.28468	331.725
239.4000	-6.56735	332.375
239.2000	-6.83331	333.045
239.0000	-7.12164	333.73
238.8000	-7.39801	334.437
238.6000	-7.73226	335.16
238.4000	-8.0607	335.905
238.2000	-8.42231	336.671
238.0000	-8.81145	337.457
237.8000	-9.18413	338.266
237.6000	-9.5606	339.096
237.4000	-9.96958	339.947
237.2000	-10.4099	340.824
237.0000	-10.805	341.725
236.8000	-11.2344	342.655
236.6000	-11.7177	343.611
236.4000	-12.1509	344.59
236.2000	-12.5798	345.597
236.0000	-13.0448	346.631
235.8000	-13.5426	347.69
235.6000	-14.0576	348.782
235.4000	-14.5523	349.904
235.2000	-15.0348	351.055
235.0000	-15.5435	352.237
234.8000	-16.0818	353.449
234.6000	-16.6216	354.693
234.4000	-17.1519	355.968
234.2000	-17.6167	357.28
234.0000	-18.0999	358.628
233.8000	-18.6466	360.008
233.6000	-19.1834	361.42
233.4000	-19.7281	362.865
233.2000	-20.2907	364.343
233.0000	-20.8406	365.849
232.8000	-21.4404	367.387
232.6000	-22.0527	368.958
232.4000	-22.602	370.562
232.2000	-23.143	372.196
232.0000	-23.7405	373.861
231.8000	-24.3196	375.56
231.6000	-24.9139	377.289
231.4000	-25.4837	379.046
231.2000	-26.0696	380.828
231.0000	-26.6868	382.64
230.8000	-27.3394	384.474
230.6000	-27.9318	386.338
230.4000	-28.577	388.219
230.2000	-29.2154	390.123
230.0000	-29.7938	392.048
229.8000	-30.3592	393.992
229.6000	-30.9408	395.956
229.4000	-31.4841	397.938
229.2000	-32.0239	399.933
229.0000	-32.5254	401.947
228.8000	-33.0272	403.976
228.6000	-33.4895	406.016
228.4000	-33.9526	408.069
228.2000	-34.4149	410.132
228.0000	-34.9091	412.208
227.8000	-35.4261	414.291
227.6000	-35.8783	416.377
227.4000	-36.3525	418.476
227.2000	-36.7649	420.577
227.0000	-37.1766	422.684
226.8000	-37.6419	424.797
226.6000	-38.0571	426.918
226.4000	-38.4856	429.041
226.2000	-38.8483	431.172
226.0000	-39.2826	433.31
225.8000	-39.6798	435.452
225.6000	-40.1374	437.596
225.4000	-40.5128	439.744
225.2000	-40.9126	441.892
225.0000	-41.315	444.044
224.8000	-41.577	446.199
224.6000	-41.7382	448.365
224.4000	-41.9681	450.531
224.2000	-42.2084	452.704
224.0000	-42.4042	454.878
223.8000	-42.6105	457.066
223.6000	-42.8321	459.262
223.4000	-43.0141	461.459
223.2000	-43.0341	463.667
223.0000	-43.0588	465.881
222.8000	-43.224	468.104
222.6000	-43.3243	470.335
222.4000	-43.3848	472.572
222.2000	-43.5134	474.812
222.0000	-43.5875	477.064
221.8000	-43.5781	479.319
221.6000	-43.6188	481.585
221.4000	-43.5672	483.856
221.2000	-43.5824	486.136
221.0000	-43.5674	488.421
220.8000	-43.4901	490.715
220.6000	-43.575	493.014
220.4000	-43.5578	495.321
220.2000	-43.5548	497.629
220.0000	-43.5026	499.95
219.8000	-43.2317	502.282
219.6000	-43.0286	504.621
219.4000	-42.7961	506.966
219.2000	-42.4862	509.314
219.0000	-42.2921	511.676
218.8000	-42.228	514.043
218.6000	-42.0207	516.422
218.4000	-41.6	518.806
218.2000	-41.4004	521.198
218.0000	-41.2533	523.593
217.8000	-41.0432	525.995
217.6000	-40.8561	528.41
217.4000	-40.768	530.827
217.2000	-40.6044	533.247
217.0000	-40.262	535.672
216.8000	-39.9636	538.106
216.6000	-39.7023	540.546
216.4000	-39.522	542.992
216.2000	-39.2757	545.442
216.0000	-39.1941	547.898
215.8000	-38.9825	550.358
215.6000	-38.7366	552.823
215.4000	-38.3788	555.294
215.2000	-38.057	557.771
215.0000	-37.6385	560.249
214.8000	-37.1672	562.736
214.6000	-36.8419	565.222
214.4000	-36.6056	567.713
214.2000	-36.516	570.202
214.0000	-36.1519	572.699
213.8000	-36.0026	575.193
213.6000	-35.728	577.69
213.4000	-35.3186	580.187
213.2000	-35.0645	582.678
213.0000	-34.8675	585.163
212.8000	-34.5254	587.647
212.6000	-34.4118	590.12
212.4000	-33.8821	592.583
212.2000	-33.2505	595.039
212.0000	-32.7852	597.479
211.8000	-32.5455	599.905
211.6000	-32.1543	602.315
211.4000	-31.4389	604.712
211.2000	-30.716	607.089
211.0000	-30.0403	609.443
210.8000	-29.2569	611.777
210.6000	-28.4155	614.09
210.4000	-27.7739	616.374
210.2000	-27.1897	618.624
210.0000	-26.5202	620.844
209.8000	-25.8072	623.032
209.6000	-25.2019	625.184
209.4000	-24.4006	627.299
209.2000	-23.5533	629.376
209.0000	-22.8501	631.41
208.8000	-22.1439	633.403
208.6000	-21.6527	635.35
208.4000	-21.0567	637.253
208.2000	-20.7221	639.108
208.0000	-20.1502	640.916
207.8000	-19.0763	642.674
207.6000	-18.6215	644.381
207.4000	-17.8527	646.039
207.2000	-16.7988	647.644
207.0000	-15.5386	649.196
206.8000	-14.9407	650.693
206.6000	-14.4128	652.136
206.4000	-13.7353	653.52
206.2000	-12.7971	654.855
206.0000	-11.7546	656.135
205.8000	-10.5418	657.361
205.6000	-9.30416	658.532
205.4000	-8.50315	659.649
205.2000	-7.59158	660.714
205.0000	-6.58812	661.727
204.8000	-6.19493	662.687
204.6000	-5.56997	663.596
204.4000	-4.85499	664.455
204.2000	-4.34683	665.261
204.0000	-4.02767	666.019
203.8000	-3.8945	666.732
203.6000	-3.16037	667.401
203.4000	-2.68126	668.027
203.2000	-2.85157	668.609
203.0000	-2.69572	669.151
202.8000	-2.61879	669.654
202.6000	-2.40991	670.12
202.4000	-1.9461	670.556
202.2000	-1.8433	670.955
202.0000	-1.32214	671.327
201.8000	-0.576308	671.669
201.6000	-0.198038	671.98
201.4000	0.223339	672.264
201.2000	-0.10504	672.52
201.0000	0.484812	672.755
200.8000	0.868229	672.969
200.6000	0.727679	673.159
200.4000	0.261036	673.329
200.2000	0.107165	673.482
200.0000	0.223366	673.62
199.8000	0.223904	673.741
199.6000	-0.0463083	673.848
199.4000	-0.1739	673.94
199.2000	-0.500335	674.023
199.0000	-1.19486	674.094
198.8000	-1.41274	674.157
198.6000	-1.5153	674.211
198.4000	-1.60567	674.256
198.2000	-1.49363	674.296
198.0000	-1.99502	674.326
197.8000	-2.56417	674.351
197.6000	-2.64569	674.375
197.4000	-2.66303	674.394
197.2000	-2.36621	674.411
197.0000	-2.28575	674.422
196.8000	-2.53579	674.43
196.6000	-2.18551	674.438
196.4000	-1.68994	674.442
196.2000	-1.6338	674.443
196.0000	-1.73778	674.444
195.8000	-2.08361	674.442
195.6000	-2.54453	674.439
195.4000	-2.1171	674.437
195.2000	-2.89582	674.429
195.0000	-3.11793	674.423

##### Extended Information
[Comments]
Sample name	Mota_1kx8_d03_noTCEP
Comment
User
Division
Company	EPFL

[Detailed Information]
Creation date	20.07.2017 14:49

Data array type	Linear data array * 2
Horizontal axis	Wavelength [nm]
Vertical axis(1)	CD [mdeg]
Vertical axis(2)	HT [V]
Start	250 nm
End	195 nm
Data interval	0.2 nm
Data points	276     

[Measurement Information]
Instrument Name	CD-Spectrometer
Model Name	J-815
Serial No.	A007961168

Accessory	PFD-425S
Accessory S/N	A001061180
  Temperature	24.99 C
  Control Sonsor	Holder
  Monitor Sensor	Holder
  Cell Length	10 mm

Photometric Mode	CD, HT
Measure Range	250 - 195 nm
Data pitch	0.2 nm
Sensitivity	Standard
D.I.T.	8 sec
Bandwidth	1.00 nm
Start Mode	Immediately
Scanning Speed	50 nm/min
Baseline Correction	None
Shutter Control	Auto
PMT Voltage	Auto
Accumulations	2
Solvent	PBS 
Concentration	20 umol/L
End Temperature.	25 C
Start Temperature.	90 C
Temperature. Interval	5 C
Ramp Rate	5 C/min

