TITLE	kx8_3_d1_TCEP_Melt
DATA TYPE	
ORIGIN	JASCO
OWNER	
DATE	17/09/12
TIME	17:22:26
SPECTROMETER/DATA SYSTEM	
LOCALE	2055
RESOLUTION	
DELTAX	-0.2
XUNITS	NANOMETERS
YUNITS	CD [mdeg]
Y2UNITS	HT [V]
FIRSTX	  250.0000
LASTX	  195.0000
NPOINTS	     276
FIRSTY	     0.08167
MAXY	     8.28964
MINY	   -22.02575
XYDATA
250.0000	0.0816721	306.543
249.8000	0.0678638	306.82
249.6000	0.0292236	307.094
249.4000	-0.00120487	307.373
249.2000	-0.0336033	307.653
249.0000	-0.0630758	307.934
248.8000	-0.0772287	308.213
248.6000	-0.0976225	308.49
248.4000	-0.128354	308.771
248.2000	-0.15548	309.052
248.0000	-0.169631	309.334
247.8000	-0.182723	309.615
247.6000	-0.188411	309.897
247.4000	-0.20511	310.182
247.2000	-0.220898	310.468
247.0000	-0.271437	310.754
246.8000	-0.312044	311.042
246.6000	-0.334296	311.327
246.4000	-0.363361	311.611
246.2000	-0.387652	311.898
246.0000	-0.41637	312.188
245.8000	-0.469293	312.481
245.6000	-0.494125	312.772
245.4000	-0.542831	313.068
245.2000	-0.577825	313.363
245.0000	-0.635803	313.662
244.8000	-0.660549	313.966
244.6000	-0.693863	314.268
244.4000	-0.768197	314.573
244.2000	-0.810718	314.88
244.0000	-0.854371	315.19
243.8000	-0.910839	315.505
243.6000	-0.975095	315.824
243.4000	-1.05259	316.151
243.2000	-1.09854	316.477
243.0000	-1.14096	316.81
242.8000	-1.18619	317.147
242.6000	-1.23269	317.482
242.4000	-1.31956	317.823
242.2000	-1.40817	318.171
242.0000	-1.48983	318.524
241.8000	-1.57874	318.884
241.6000	-1.65248	319.246
241.4000	-1.7479	319.615
241.2000	-1.86167	319.988
241.0000	-1.97224	320.367
240.8000	-2.07229	320.751
240.6000	-2.16751	321.14
240.4000	-2.22987	321.535
240.2000	-2.3212	321.935
240.0000	-2.43286	322.34
239.8000	-2.54623	322.752
239.6000	-2.6789	323.174
239.4000	-2.80507	323.598
239.2000	-2.9438	324.033
239.0000	-3.11116	324.474
238.8000	-3.29138	324.923
238.6000	-3.44732	325.381
238.4000	-3.60044	325.844
238.2000	-3.75625	326.314
238.0000	-3.94249	326.793
237.8000	-4.08806	327.282
237.6000	-4.26578	327.782
237.4000	-4.44291	328.284
237.2000	-4.63905	328.795
237.0000	-4.85823	329.315
236.8000	-5.07268	329.841
236.6000	-5.31761	330.376
236.4000	-5.53093	330.92
236.2000	-5.74284	331.471
236.0000	-6.00108	332.034
235.8000	-6.23068	332.602
235.6000	-6.42641	333.181
235.4000	-6.67908	333.766
235.2000	-6.9282	334.357
235.0000	-7.18868	334.957
234.8000	-7.4292	335.563
234.6000	-7.66829	336.18
234.4000	-7.92118	336.807
234.2000	-8.18353	337.439
234.0000	-8.44904	338.081
233.8000	-8.77253	338.731
233.6000	-9.08292	339.386
233.4000	-9.38481	340.053
233.2000	-9.702	340.726
233.0000	-9.99448	341.399
232.8000	-10.2995	342.082
232.6000	-10.6066	342.768
232.4000	-10.8785	343.461
232.2000	-11.1608	344.159
232.0000	-11.4646	344.868
231.8000	-11.7636	345.58
231.6000	-12.0637	346.301
231.4000	-12.3573	347.031
231.2000	-12.6561	347.762
231.0000	-12.9751	348.503
230.8000	-13.2766	349.247
230.6000	-13.5974	349.995
230.4000	-13.8981	350.751
230.2000	-14.1398	351.504
230.0000	-14.3876	352.265
229.8000	-14.6881	353.029
229.6000	-14.9676	353.798
229.4000	-15.2601	354.571
229.2000	-15.5418	355.343
229.0000	-15.8344	356.121
228.8000	-16.1223	356.902
228.6000	-16.4177	357.684
228.4000	-16.7079	358.47
228.2000	-16.995	359.259
228.0000	-17.2801	360.054
227.8000	-17.5252	360.846
227.6000	-17.8095	361.641
227.4000	-18.0732	362.44
227.2000	-18.3088	363.241
227.0000	-18.5193	364.046
226.8000	-18.7756	364.856
226.6000	-18.9924	365.668
226.4000	-19.2423	366.486
226.2000	-19.4662	367.308
226.0000	-19.6551	368.142
225.8000	-19.8671	368.979
225.6000	-20.0514	369.82
225.4000	-20.1847	370.665
225.2000	-20.3157	371.513
225.0000	-20.4878	372.359
224.8000	-20.5993	373.212
224.6000	-20.7324	374.067
224.4000	-20.867	374.929
224.2000	-21.0252	375.797
224.0000	-21.1772	376.67
223.8000	-21.2695	377.55
223.6000	-21.3435	378.436
223.4000	-21.4198	379.328
223.2000	-21.4604	380.229
223.0000	-21.564	381.137
222.8000	-21.6578	382.052
222.6000	-21.7122	382.971
222.4000	-21.7564	383.902
222.2000	-21.8323	384.834
222.0000	-21.9268	385.779
221.8000	-21.9624	386.726
221.6000	-21.98	387.682
221.4000	-21.9587	388.642
221.2000	-21.9834	389.612
221.0000	-22.0086	390.587
220.8000	-21.9918	391.572
220.6000	-21.9932	392.562
220.4000	-21.9511	393.56
220.2000	-21.8879	394.564
220.0000	-21.8576	395.577
219.8000	-21.8253	396.595
219.6000	-21.7773	397.622
219.4000	-21.7675	398.657
219.2000	-21.7381	399.695
219.0000	-21.7125	400.742
218.8000	-21.6995	401.799
218.6000	-21.698	402.864
218.4000	-21.6743	403.941
218.2000	-21.6481	405.025
218.0000	-21.7136	406.119
217.8000	-21.7222	407.224
217.6000	-21.6633	408.335
217.4000	-21.6147	409.457
217.2000	-21.5195	410.589
217.0000	-21.4366	411.73
216.8000	-21.3869	412.89
216.6000	-21.3997	414.055
216.4000	-21.4436	415.232
216.2000	-21.4179	416.424
216.0000	-21.4733	417.628
215.8000	-21.4859	418.844
215.6000	-21.4573	420.071
215.4000	-21.3199	421.312
215.2000	-21.2261	422.575
215.0000	-21.1807	423.85
214.8000	-21.1657	425.147
214.6000	-21.1631	426.466
214.4000	-21.0973	427.798
214.2000	-21.0349	429.153
214.0000	-21.004	430.524
213.8000	-20.994	431.915
213.6000	-20.9799	433.329
213.4000	-21.0341	434.765
213.2000	-21.0153	436.222
213.0000	-21.0181	437.702
212.8000	-20.9649	439.205
212.6000	-21.0378	440.733
212.4000	-21.1311	442.283
212.2000	-21.1306	443.857
212.0000	-21.1796	445.458
211.8000	-21.2588	447.084
211.6000	-21.3737	448.737
211.4000	-21.4099	450.422
211.2000	-21.4911	452.13
211.0000	-21.5791	453.867
210.8000	-21.5817	455.636
210.6000	-21.7321	457.438
210.4000	-21.9006	459.271
210.2000	-21.9702	461.127
210.0000	-22.0257	463.019
209.8000	-22.0252	464.943
209.6000	-21.8981	466.896
209.4000	-21.8532	468.888
209.2000	-21.7026	470.913
209.0000	-21.7439	472.974
208.8000	-21.6985	475.077
208.6000	-21.627	477.212
208.4000	-21.5896	479.385
208.2000	-21.6751	481.599
208.0000	-21.5191	483.846
207.8000	-21.4325	486.137
207.6000	-21.2894	488.475
207.4000	-21.1033	490.857
207.2000	-20.9546	493.287
207.0000	-20.8441	495.762
206.8000	-20.6358	498.291
206.6000	-20.32	500.868
206.4000	-19.9689	503.501
206.2000	-19.6583	506.189
206.0000	-19.1938	508.93
205.8000	-18.7564	511.738
205.6000	-18.5313	514.601
205.4000	-17.9121	517.534
205.2000	-17.3207	520.537
205.0000	-16.7644	523.606
204.8000	-16.1849	526.749
204.6000	-15.5244	529.973
204.4000	-14.7705	533.274
204.2000	-14.2693	536.656
204.0000	-13.378	540.125
203.8000	-12.4814	543.692
203.6000	-11.4998	547.347
203.4000	-10.7373	551.108
203.2000	-9.91391	554.967
203.0000	-9.01456	558.92
202.8000	-8.12269	562.975
202.6000	-7.64973	567.124
202.4000	-6.85026	571.377
202.2000	-5.65524	575.73
202.0000	-4.82635	580.181
201.8000	-3.84795	584.729
201.6000	-2.74165	589.362
201.4000	-2.23538	594.078
201.2000	-1.38568	598.863
201.0000	-0.858925	603.708
200.8000	-0.367471	608.606
200.6000	0.327661	613.534
200.4000	0.947951	618.483
200.2000	1.59324	623.442
200.0000	2.4763	628.4
199.8000	2.70221	633.334
199.6000	3.54334	638.229
199.4000	4.02266	643.072
199.2000	4.75231	647.847
199.0000	5.07131	652.538
198.8000	5.42069	657.14
198.6000	6.07999	661.641
198.4000	5.7743	666.016
198.2000	5.87576	670.278
198.0000	6.1973	674.406
197.8000	6.9379	678.399
197.6000	7.70834	682.252
197.4000	7.77166	685.954
197.2000	7.97771	689.492
197.0000	7.75278	692.869
196.8000	7.83587	696.075
196.6000	8.28964	699.11
196.4000	8.21444	701.971
196.2000	7.63578	704.655
196.0000	7.57855	707.167
195.8000	7.7152	709.495
195.6000	7.43395	711.645
195.4000	7.15843	713.611
195.2000	7.34257	715.399
195.0000	6.70445	717.004

##### Extended Information
[Comments]
Sample name	kx8_3_d1_TCEP_Melt
Comment
User
Division
Company	EPFL

[Detailed Information]
Creation date	12.09.2017 17:22

Data array type	Linear data array * 2
Horizontal axis	Wavelength [nm]
Vertical axis(1)	CD [mdeg]
Vertical axis(2)	HT [V]
Start	250 nm
End	195 nm
Data interval	0.2 nm
Data points	276     

[Measurement Information]
Instrument Name	CD-Spectrometer
Model Name	J-815
Serial No.	A007961168

Accessory	PFD-425S
Accessory S/N	A001061180
  Temperature	20.00 C
  Control Sonsor	Holder
  Monitor Sensor	Holder
  Cell Length	10 mm

Photometric Mode	CD, HT
Measure Range	250 - 195 nm
Data pitch	0.2 nm
Sensitivity	Standard
D.I.T.	8 sec
Bandwidth	1.00 nm
Start Mode	Immediately
Scanning Speed	50 nm/min
Baseline Correction	None
Shutter Control	Auto
PMT Voltage	Auto
Accumulations	2
End Temperature.	20 C
Start Temperature.	90 C
Temperature. Interval	2 C
Ramp Rate	2 C/min

