TITLE	kx8_3_d1_TCEP_Melt
DATA TYPE	
ORIGIN	JASCO
OWNER	
DATE	17/09/12
TIME	17:22:26
SPECTROMETER/DATA SYSTEM	
LOCALE	2055
RESOLUTION	
DELTAX	-0.2
XUNITS	NANOMETERS
YUNITS	CD [mdeg]
Y2UNITS	HT [V]
FIRSTX	  250.0000
LASTX	  195.0000
NPOINTS	     276
FIRSTY	     0.08033
MAXY	     3.34244
MINY	   -15.29929
XYDATA
250.0000	0.0803289	307.215
249.8000	0.0919743	307.493
249.6000	0.095763	307.775
249.4000	0.0715067	308.056
249.2000	0.0230673	308.336
249.0000	-0.0120176	308.619
248.8000	-0.039546	308.902
248.6000	-0.0624565	309.186
248.4000	-0.0744385	309.471
248.2000	-0.0939535	309.754
248.0000	-0.0978416	310.04
247.8000	-0.108826	310.325
247.6000	-0.138256	310.609
247.4000	-0.150598	310.895
247.2000	-0.156471	311.186
247.0000	-0.170131	311.476
246.8000	-0.187326	311.762
246.6000	-0.203324	312.053
246.4000	-0.212986	312.343
246.2000	-0.253363	312.636
246.0000	-0.30706	312.933
245.8000	-0.340255	313.228
245.6000	-0.358692	313.525
245.4000	-0.387229	313.823
245.2000	-0.42035	314.131
245.0000	-0.447357	314.439
244.8000	-0.491658	314.748
244.6000	-0.53383	315.057
244.4000	-0.545977	315.37
244.2000	-0.587705	315.689
244.0000	-0.634025	316.006
243.8000	-0.708228	316.33
243.6000	-0.768386	316.652
243.4000	-0.808449	316.985
243.2000	-0.852375	317.321
243.0000	-0.873173	317.657
242.8000	-0.893365	318.004
242.6000	-0.895178	318.348
242.4000	-0.919417	318.699
242.2000	-0.989069	319.052
242.0000	-1.05921	319.414
241.8000	-1.107	319.778
241.6000	-1.16866	320.15
241.4000	-1.22876	320.524
241.2000	-1.30518	320.904
241.0000	-1.38091	321.296
240.8000	-1.45593	321.684
240.6000	-1.55701	322.079
240.4000	-1.64298	322.48
240.2000	-1.72654	322.89
240.0000	-1.80576	323.308
239.8000	-1.89298	323.728
239.6000	-1.97057	324.159
239.4000	-2.06248	324.593
239.2000	-2.13053	325.035
239.0000	-2.216	325.481
238.8000	-2.29936	325.935
238.6000	-2.37234	326.395
238.4000	-2.46725	326.863
238.2000	-2.55619	327.34
238.0000	-2.64245	327.827
237.8000	-2.73078	328.321
237.6000	-2.84941	328.82
237.4000	-2.94676	329.326
237.2000	-3.05541	329.841
237.0000	-3.12335	330.367
236.8000	-3.22899	330.901
236.6000	-3.3739	331.442
236.4000	-3.56084	331.993
236.2000	-3.72023	332.548
236.0000	-3.83629	333.116
235.8000	-3.95269	333.69
235.6000	-4.05256	334.272
235.4000	-4.14961	334.863
235.2000	-4.2733	335.457
235.0000	-4.39115	336.06
234.8000	-4.51387	336.679
234.6000	-4.62077	337.298
234.4000	-4.71658	337.934
234.2000	-4.796	338.574
234.0000	-4.87878	339.224
233.8000	-4.98411	339.884
233.6000	-5.09952	340.553
233.4000	-5.23903	341.229
233.2000	-5.36888	341.913
233.0000	-5.51357	342.602
232.8000	-5.62845	343.296
232.6000	-5.76719	344
232.4000	-5.90092	344.712
232.2000	-6.03501	345.437
232.0000	-6.19279	346.168
231.8000	-6.36817	346.909
231.6000	-6.49024	347.657
231.4000	-6.59131	348.417
231.2000	-6.70875	349.182
231.0000	-6.82228	349.955
230.8000	-6.9643	350.736
230.6000	-7.11368	351.522
230.4000	-7.23722	352.316
230.2000	-7.39203	353.112
230.0000	-7.51006	353.911
229.8000	-7.61859	354.723
229.6000	-7.70224	355.536
229.4000	-7.8737	356.353
229.2000	-8.03065	357.179
229.0000	-8.15813	358.008
228.8000	-8.28239	358.847
228.6000	-8.39558	359.693
228.4000	-8.4723	360.543
228.2000	-8.57755	361.396
228.0000	-8.70256	362.256
227.8000	-8.88473	363.119
227.6000	-9.0512	363.988
227.4000	-9.21876	364.859
227.2000	-9.35513	365.731
227.0000	-9.50712	366.616
226.8000	-9.62148	367.499
226.6000	-9.67989	368.397
226.4000	-9.76408	369.296
226.2000	-9.8814	370.207
226.0000	-9.97424	371.12
225.8000	-10.0837	372.04
225.6000	-10.1374	372.964
225.4000	-10.2281	373.889
225.2000	-10.2929	374.822
225.0000	-10.3355	375.756
224.8000	-10.4077	376.697
224.6000	-10.4689	377.641
224.4000	-10.5837	378.593
224.2000	-10.6306	379.552
224.0000	-10.6699	380.515
223.8000	-10.7565	381.483
223.6000	-10.8411	382.466
223.4000	-10.9161	383.451
223.2000	-10.9142	384.446
223.0000	-10.9801	385.453
222.8000	-11.0404	386.467
222.6000	-11.0703	387.487
222.4000	-11.1232	388.512
222.2000	-11.1449	389.544
222.0000	-11.1723	390.586
221.8000	-11.2472	391.631
221.6000	-11.3427	392.689
221.4000	-11.3997	393.749
221.2000	-11.4228	394.819
221.0000	-11.4364	395.898
220.8000	-11.4408	396.986
220.6000	-11.4884	398.079
220.4000	-11.4733	399.178
220.2000	-11.4728	400.288
220.0000	-11.4629	401.401
219.8000	-11.5228	402.525
219.6000	-11.4941	403.661
219.4000	-11.4861	404.806
219.2000	-11.4366	405.957
219.0000	-11.4992	407.116
218.8000	-11.5504	408.283
218.6000	-11.498	409.465
218.4000	-11.6028	410.655
218.2000	-11.7074	411.859
218.0000	-11.7656	413.07
217.8000	-11.8064	414.292
217.6000	-11.8204	415.528
217.4000	-11.8658	416.769
217.2000	-11.8964	418.026
217.0000	-11.944	419.294
216.8000	-11.9939	420.576
216.6000	-12.0462	421.873
216.4000	-12.083	423.178
216.2000	-12.0937	424.501
216.0000	-12.1135	425.841
215.8000	-12.0648	427.2
215.6000	-12.1427	428.574
215.4000	-12.1365	429.97
215.2000	-12.1563	431.383
215.0000	-12.0909	432.819
214.8000	-12.1068	434.275
214.6000	-12.1812	435.746
214.4000	-12.1163	437.247
214.2000	-12.0969	438.769
214.0000	-12.0484	440.314
213.8000	-12.2113	441.893
213.6000	-12.3968	443.492
213.4000	-12.4678	445.121
213.2000	-12.496	446.781
213.0000	-12.6021	448.461
212.8000	-12.6449	450.175
212.6000	-12.7334	451.921
212.4000	-12.8737	453.697
212.2000	-12.9027	455.515
212.0000	-13.0581	457.362
211.8000	-13.124	459.244
211.6000	-13.2024	461.168
211.4000	-13.2947	463.134
211.2000	-13.4742	465.145
211.0000	-13.6398	467.197
210.8000	-13.8274	469.295
210.6000	-14.0978	471.445
210.4000	-14.2477	473.643
210.2000	-14.3465	475.892
210.0000	-14.3829	478.19
209.8000	-14.4895	480.546
209.6000	-14.4992	482.962
209.4000	-14.5051	485.438
209.2000	-14.6273	487.969
209.0000	-14.7702	490.564
208.8000	-14.852	493.231
208.6000	-14.8553	495.97
208.4000	-14.7102	498.784
208.2000	-14.6928	501.675
208.0000	-14.8241	504.647
207.8000	-14.7564	507.7
207.6000	-14.8557	510.847
207.4000	-15.0523	514.09
207.2000	-15.1773	517.426
207.0000	-15.1797	520.868
206.8000	-15.121	524.414
206.6000	-15.2993	528.064
206.4000	-15.1112	531.832
206.2000	-15.0872	535.715
206.0000	-15.0336	539.721
205.8000	-14.9136	543.851
205.6000	-14.4999	548.104
205.4000	-14.2397	552.482
205.2000	-14.2165	556.986
205.0000	-13.9855	561.612
204.8000	-13.5963	566.363
204.6000	-12.8886	571.231
204.4000	-12.3732	576.207
204.2000	-11.925	581.289
204.0000	-11.2931	586.453
203.8000	-11.0864	591.693
203.6000	-11.031	596.984
203.4000	-10.5748	602.324
203.2000	-10.5085	607.684
203.0000	-10.3125	613.039
202.8000	-9.86279	618.382
202.6000	-9.44483	623.689
202.4000	-8.94038	628.947
202.2000	-8.57069	634.14
202.0000	-8.31612	639.26
201.8000	-8.49464	644.275
201.6000	-8.18125	649.187
201.4000	-7.88539	653.966
201.2000	-7.0833	658.606
201.0000	-6.31169	663.098
200.8000	-5.71516	667.441
200.6000	-4.68446	671.628
200.4000	-4.2286	675.653
200.2000	-3.95965	679.505
200.0000	-3.43634	683.188
199.8000	-3.6586	686.691
199.6000	-3.94718	690.012
199.4000	-3.66286	693.143
199.2000	-2.92784	696.086
199.0000	-3.08407	698.83
198.8000	-2.58154	701.374
198.6000	-1.8072	703.716
198.4000	-0.795157	705.858
198.2000	-0.705679	707.792
198.0000	-0.62512	709.52
197.8000	-0.0749573	711.052
197.6000	0.256789	712.391
197.4000	-0.0988838	713.546
197.2000	0.503092	714.533
197.0000	0.796667	715.368
196.8000	1.02622	716.06
196.6000	1.6003	716.624
196.4000	2.3828	717.088
196.2000	2.5028	717.462
196.0000	3.12321	717.75
195.8000	3.34244	717.987
195.6000	3.08685	718.146
195.4000	2.52973	718.233
195.2000	2.95148	718.281
195.0000	3.02527	718.306

##### Extended Information
[Comments]
Sample name	kx8_3_d1_TCEP_Melt
Comment
User
Division
Company	EPFL

[Detailed Information]
Creation date	12.09.2017 17:22

Data array type	Linear data array * 2
Horizontal axis	Wavelength [nm]
Vertical axis(1)	CD [mdeg]
Vertical axis(2)	HT [V]
Start	250 nm
End	195 nm
Data interval	0.2 nm
Data points	276     

[Measurement Information]
Instrument Name	CD-Spectrometer
Model Name	J-815
Serial No.	A007961168

Accessory	PFD-425S
Accessory S/N	A001061180
  Temperature	20.00 C
  Control Sonsor	Holder
  Monitor Sensor	Holder
  Cell Length	10 mm

Photometric Mode	CD, HT
Measure Range	250 - 195 nm
Data pitch	0.2 nm
Sensitivity	Standard
D.I.T.	8 sec
Bandwidth	1.00 nm
Start Mode	Immediately
Scanning Speed	50 nm/min
Baseline Correction	None
Shutter Control	Auto
PMT Voltage	Auto
Accumulations	2
End Temperature.	20 C
Start Temperature.	90 C
Temperature. Interval	2 C
Ramp Rate	2 C/min

