TITLE	kx8_3_d1_TCEP_Melt
DATA TYPE	
ORIGIN	JASCO
OWNER	
DATE	17/09/12
TIME	17:22:26
SPECTROMETER/DATA SYSTEM	
LOCALE	2055
RESOLUTION	
DELTAX	-0.2
XUNITS	NANOMETERS
YUNITS	CD [mdeg]
Y2UNITS	HT [V]
FIRSTX	  250.0000
LASTX	  195.0000
NPOINTS	     276
FIRSTY	     0.01934
MAXY	     0.19241
MINY	   -15.14102
XYDATA
250.0000	0.0193438	306.749
249.8000	0.0154119	307.025
249.6000	0.0104927	307.305
249.4000	0.0183258	307.585
249.2000	0.0211897	307.868
249.0000	0.0275694	308.146
248.8000	0.0180365	308.426
248.6000	-0.0112747	308.707
248.4000	-0.0364084	308.991
248.2000	-0.0558653	309.272
248.0000	-0.0934534	309.555
247.8000	-0.106342	309.84
247.6000	-0.130866	310.127
247.4000	-0.149952	310.414
247.2000	-0.154602	310.702
247.0000	-0.188888	310.99
246.8000	-0.203345	311.284
246.6000	-0.241029	311.574
246.4000	-0.288644	311.867
246.2000	-0.296557	312.165
246.0000	-0.308038	312.459
245.8000	-0.33651	312.761
245.6000	-0.38608	313.059
245.4000	-0.40955	313.363
245.2000	-0.459558	313.668
245.0000	-0.498632	313.976
244.8000	-0.54247	314.286
244.6000	-0.576607	314.598
244.4000	-0.615121	314.912
244.2000	-0.648934	315.23
244.0000	-0.661785	315.554
243.8000	-0.688475	315.877
243.6000	-0.719856	316.203
243.4000	-0.753575	316.537
243.2000	-0.808529	316.873
243.0000	-0.871848	317.214
242.8000	-0.907305	317.559
242.6000	-0.948038	317.904
242.4000	-0.99427	318.258
242.2000	-1.07327	318.613
242.0000	-1.13304	318.974
241.8000	-1.18823	319.342
241.6000	-1.25923	319.714
241.4000	-1.2921	320.087
241.2000	-1.33018	320.471
241.0000	-1.39487	320.854
240.8000	-1.47765	321.25
240.6000	-1.59041	321.644
240.4000	-1.63477	322.048
240.2000	-1.70814	322.455
240.0000	-1.80485	322.872
239.8000	-1.87655	323.293
239.6000	-1.95801	323.721
239.4000	-2.07345	324.156
239.2000	-2.18386	324.595
239.0000	-2.25585	325.041
238.8000	-2.33821	325.494
238.6000	-2.40212	325.958
238.4000	-2.47988	326.428
238.2000	-2.54914	326.906
238.0000	-2.65827	327.389
237.8000	-2.74961	327.885
237.6000	-2.85042	328.386
237.4000	-2.96962	328.893
237.2000	-3.09684	329.409
237.0000	-3.20726	329.934
236.8000	-3.31528	330.469
236.6000	-3.39243	331.009
236.4000	-3.47673	331.56
236.2000	-3.58585	332.113
236.0000	-3.68459	332.684
235.8000	-3.7845	333.253
235.6000	-3.89167	333.838
235.4000	-4.00784	334.43
235.2000	-4.09011	335.028
235.0000	-4.17605	335.638
234.8000	-4.27032	336.257
234.6000	-4.39743	336.883
234.4000	-4.51839	337.518
234.2000	-4.60475	338.16
234.0000	-4.6975	338.815
233.8000	-4.79201	339.478
233.6000	-4.92819	340.148
233.4000	-5.05659	340.828
233.2000	-5.19736	341.518
233.0000	-5.33242	342.212
232.8000	-5.42057	342.911
232.6000	-5.54303	343.619
232.4000	-5.66143	344.336
232.2000	-5.75198	345.064
232.0000	-5.86158	345.798
231.8000	-5.99827	346.542
231.6000	-6.13286	347.295
231.4000	-6.25049	348.054
231.2000	-6.37405	348.824
231.0000	-6.52007	349.599
230.8000	-6.63804	350.385
230.6000	-6.75323	351.177
230.4000	-6.87868	351.978
230.2000	-6.97911	352.783
230.0000	-7.08757	353.594
229.8000	-7.21103	354.411
229.6000	-7.31797	355.237
229.4000	-7.45725	356.064
229.2000	-7.59385	356.9
229.0000	-7.70498	357.738
228.8000	-7.80833	358.588
228.6000	-7.9465	359.443
228.4000	-8.11683	360.297
228.2000	-8.28455	361.161
228.0000	-8.41502	362.031
227.8000	-8.50586	362.903
227.6000	-8.61356	363.782
227.4000	-8.72371	364.664
227.2000	-8.86378	365.551
227.0000	-8.93882	366.443
226.8000	-9.05935	367.339
226.6000	-9.13046	368.244
226.4000	-9.16964	369.154
226.2000	-9.27147	370.072
226.0000	-9.31812	371
225.8000	-9.40336	371.929
225.6000	-9.47787	372.863
225.4000	-9.5752	373.801
225.2000	-9.65105	374.741
225.0000	-9.72145	375.689
224.8000	-9.79193	376.644
224.6000	-9.86925	377.601
224.4000	-9.91792	378.566
224.2000	-10.0012	379.541
224.0000	-10.1121	380.517
223.8000	-10.1733	381.502
223.6000	-10.2192	382.493
223.4000	-10.2799	383.495
223.2000	-10.3278	384.506
223.0000	-10.364	385.521
222.8000	-10.3886	386.546
222.6000	-10.4497	387.58
222.4000	-10.514	388.62
222.2000	-10.5306	389.665
222.0000	-10.5701	390.717
221.8000	-10.6272	391.775
221.6000	-10.6536	392.842
221.4000	-10.6885	393.919
221.2000	-10.7687	395.004
221.0000	-10.813	396.096
220.8000	-10.7818	397.195
220.6000	-10.7831	398.304
220.4000	-10.8193	399.42
220.2000	-10.85	400.544
220.0000	-10.8531	401.672
219.8000	-10.8494	402.815
219.6000	-10.8615	403.966
219.4000	-10.9146	405.125
219.2000	-10.9955	406.295
219.0000	-11.0916	407.474
218.8000	-11.0745	408.668
218.6000	-11.0872	409.873
218.4000	-11.1211	411.083
218.2000	-11.1287	412.304
218.0000	-11.1366	413.536
217.8000	-11.1182	414.781
217.6000	-11.088	416.034
217.4000	-11.0719	417.299
217.2000	-11.1173	418.571
217.0000	-11.2332	419.864
216.8000	-11.2937	421.165
216.6000	-11.3309	422.484
216.4000	-11.3067	423.819
216.2000	-11.4096	425.163
216.0000	-11.4465	426.53
215.8000	-11.4514	427.912
215.6000	-11.5013	429.307
215.4000	-11.5455	430.723
215.2000	-11.4719	432.164
215.0000	-11.4724	433.622
214.8000	-11.5454	435.109
214.6000	-11.5713	436.614
214.4000	-11.6394	438.142
214.2000	-11.7496	439.695
214.0000	-11.7965	441.277
213.8000	-11.9662	442.881
213.6000	-12.0596	444.517
213.4000	-12.1862	446.183
213.2000	-12.3008	447.876
213.0000	-12.3915	449.601
212.8000	-12.3921	451.362
212.6000	-12.5314	453.147
212.4000	-12.6079	454.972
212.2000	-12.7068	456.831
212.0000	-12.9082	458.729
211.8000	-12.9407	460.661
211.6000	-13.0781	462.637
211.4000	-13.215	464.663
211.2000	-13.3669	466.734
211.0000	-13.3912	468.858
210.8000	-13.4928	471.024
210.6000	-13.5948	473.247
210.4000	-13.6381	475.521
210.2000	-13.8081	477.844
210.0000	-14.0578	480.226
209.8000	-14.2695	482.672
209.6000	-14.3922	485.185
209.4000	-14.4597	487.765
209.2000	-14.5012	490.41
209.0000	-14.5921	493.124
208.8000	-14.7267	495.919
208.6000	-14.7351	498.79
208.4000	-14.9622	501.746
208.2000	-15.141	504.782
208.0000	-14.9914	507.908
207.8000	-14.8703	511.127
207.6000	-14.923	514.449
207.4000	-14.8166	517.87
207.2000	-14.2647	521.401
207.0000	-14.2062	525.042
206.8000	-14.0068	528.798
206.6000	-14.0083	532.669
206.4000	-14.057	536.667
206.2000	-13.7383	540.794
206.0000	-13.6717	545.046
205.8000	-13.779	549.429
205.6000	-13.7152	553.945
205.4000	-13.4061	558.59
205.2000	-13.2617	563.37
205.0000	-13.2223	568.275
204.8000	-12.8253	573.303
204.6000	-12.1422	578.442
204.4000	-11.9657	583.678
204.2000	-11.542	589.006
204.0000	-10.9052	594.407
203.8000	-10.744	599.859
203.6000	-10.587	605.348
203.4000	-10.3696	610.848
203.2000	-10.0738	616.346
203.0000	-9.60752	621.81
202.8000	-9.2183	627.23
202.6000	-8.85009	632.589
202.4000	-8.61667	637.87
202.2000	-8.13626	643.059
202.0000	-7.75787	648.142
201.8000	-7.07911	653.099
201.6000	-6.14734	657.933
201.4000	-5.33818	662.632
201.2000	-5.11589	667.182
201.0000	-4.66355	671.578
200.8000	-4.15546	675.816
200.6000	-3.97559	679.885
200.4000	-3.83777	683.781
200.2000	-3.61334	687.497
200.0000	-3.40443	691.029
199.8000	-2.87715	694.367
199.6000	-2.58713	697.509
199.4000	-2.59933	700.451
199.2000	-1.88859	703.189
199.0000	-1.6707	705.719
198.8000	-1.47328	708.037
198.6000	-1.3078	710.148
198.4000	-0.74162	712.054
198.2000	-0.616153	713.743
198.0000	-0.991948	715.229
197.8000	-1.02643	716.52
197.6000	-0.747514	717.623
197.4000	-0.800218	718.556
197.2000	-0.64934	719.329
197.0000	-0.270637	719.965
196.8000	-0.110911	720.473
196.6000	-0.748238	720.867
196.4000	-0.593944	721.175
196.2000	-0.0926268	721.407
196.0000	-0.132529	721.576
195.8000	0.192407	721.702
195.6000	-0.138694	721.786
195.4000	0.023443	721.841
195.2000	-0.0190422	721.875
195.0000	-0.335816	721.895

##### Extended Information
[Comments]
Sample name	kx8_3_d1_TCEP_Melt
Comment
User
Division
Company	EPFL

[Detailed Information]
Creation date	12.09.2017 17:22

Data array type	Linear data array * 2
Horizontal axis	Wavelength [nm]
Vertical axis(1)	CD [mdeg]
Vertical axis(2)	HT [V]
Start	250 nm
End	195 nm
Data interval	0.2 nm
Data points	276     

[Measurement Information]
Instrument Name	CD-Spectrometer
Model Name	J-815
Serial No.	A007961168

Accessory	PFD-425S
Accessory S/N	A001061180
  Temperature	20.00 C
  Control Sonsor	Holder
  Monitor Sensor	Holder
  Cell Length	10 mm

Photometric Mode	CD, HT
Measure Range	250 - 195 nm
Data pitch	0.2 nm
Sensitivity	Standard
D.I.T.	8 sec
Bandwidth	1.00 nm
Start Mode	Immediately
Scanning Speed	50 nm/min
Baseline Correction	None
Shutter Control	Auto
PMT Voltage	Auto
Accumulations	2
End Temperature.	20 C
Start Temperature.	90 C
Temperature. Interval	2 C
Ramp Rate	2 C/min

