TITLE	Mota_1kx8_d05_tcep
DATA TYPE	
ORIGIN	JASCO
OWNER	
DATE	17/08/08
TIME	13:42:06
SPECTROMETER/DATA SYSTEM	
LOCALE	2055
RESOLUTION	
DELTAX	-0.2
XUNITS	NANOMETERS
YUNITS	CD [mdeg]
Y2UNITS	HT [V]
FIRSTX	  250.0000
LASTX	  195.0000
NPOINTS	     276
FIRSTY	     0.05146
MAXY	     2.33672
MINY	    -3.56028
XYDATA
250.0000	0.0514561	311.26
249.8000	0.0249901	311.563
249.6000	0.00909634	311.865
249.4000	0.00320969	312.167
249.2000	0.000914764	312.473
249.0000	-0.0152012	312.778
248.8000	-0.0305075	313.083
248.6000	-0.0234552	313.393
248.4000	-0.0191797	313.704
248.2000	-0.0361139	314.012
248.0000	-0.0560759	314.327
247.8000	-0.0886583	314.636
247.6000	-0.128018	314.946
247.4000	-0.153269	315.262
247.2000	-0.164979	315.578
247.0000	-0.186686	315.894
246.8000	-0.179848	316.215
246.6000	-0.209073	316.536
246.4000	-0.236824	316.858
246.2000	-0.270904	317.191
246.0000	-0.282762	317.517
245.8000	-0.321123	317.849
245.6000	-0.357967	318.181
245.4000	-0.409999	318.516
245.2000	-0.436309	318.856
245.0000	-0.489943	319.198
244.8000	-0.533911	319.544
244.6000	-0.571839	319.893
244.4000	-0.552485	320.247
244.2000	-0.569547	320.606
244.0000	-0.59759	320.97
243.8000	-0.621381	321.34
243.6000	-0.629883	321.714
243.4000	-0.649514	322.095
243.2000	-0.663	322.475
243.0000	-0.686648	322.864
242.8000	-0.724322	323.256
242.6000	-0.778032	323.653
242.4000	-0.835415	324.056
242.2000	-0.855957	324.463
242.0000	-0.884183	324.878
241.8000	-0.92862	325.296
241.6000	-0.991737	325.721
241.4000	-1.04544	326.151
241.2000	-1.06726	326.591
241.0000	-1.07497	327.041
240.8000	-1.07129	327.499
240.6000	-1.08316	327.961
240.4000	-1.11613	328.431
240.2000	-1.17755	328.907
240.0000	-1.22607	329.392
239.8000	-1.26195	329.881
239.6000	-1.30571	330.378
239.4000	-1.36233	330.883
239.2000	-1.39888	331.398
239.0000	-1.451	331.921
238.8000	-1.51486	332.456
238.6000	-1.52822	332.997
238.4000	-1.55439	333.551
238.2000	-1.58824	334.11
238.0000	-1.65043	334.681
237.8000	-1.74444	335.258
237.6000	-1.84187	335.848
237.4000	-1.91542	336.444
237.2000	-1.96672	337.048
237.0000	-2.00423	337.661
236.8000	-2.05264	338.285
236.6000	-2.13523	338.92
236.4000	-2.19267	339.564
236.2000	-2.27498	340.219
236.0000	-2.3391	340.882
235.8000	-2.37362	341.553
235.6000	-2.38413	342.236
235.4000	-2.42287	342.927
235.2000	-2.48973	343.621
235.0000	-2.52825	344.332
234.8000	-2.58132	345.049
234.6000	-2.61576	345.776
234.4000	-2.66474	346.514
234.2000	-2.73126	347.256
234.0000	-2.80579	348.009
233.8000	-2.84903	348.77
233.6000	-2.8777	349.537
233.4000	-2.89229	350.317
233.2000	-2.94122	351.101
233.0000	-2.9852	351.889
232.8000	-3.05473	352.684
232.6000	-3.11281	353.491
232.4000	-3.15954	354.301
232.2000	-3.18305	355.121
232.0000	-3.22401	355.947
231.8000	-3.28448	356.781
231.6000	-3.32698	357.624
231.4000	-3.34096	358.471
231.2000	-3.32592	359.328
231.0000	-3.33954	360.184
230.8000	-3.35012	361.05
230.6000	-3.38794	361.919
230.4000	-3.44049	362.797
230.2000	-3.49114	363.674
230.0000	-3.47991	364.555
229.8000	-3.5035	365.439
229.6000	-3.51104	366.325
229.4000	-3.48809	367.215
229.2000	-3.48246	368.105
229.0000	-3.48835	368.999
228.8000	-3.52895	369.898
228.6000	-3.51192	370.799
228.4000	-3.5267	371.701
228.2000	-3.51934	372.605
228.0000	-3.52426	373.511
227.8000	-3.55052	374.413
227.6000	-3.56028	375.314
227.4000	-3.53629	376.216
227.2000	-3.54043	377.12
227.0000	-3.51588	378.028
226.8000	-3.51143	378.933
226.6000	-3.54234	379.845
226.4000	-3.51108	380.753
226.2000	-3.48677	381.667
226.0000	-3.44744	382.577
225.8000	-3.44567	383.487
225.6000	-3.43658	384.4
225.4000	-3.38923	385.313
225.2000	-3.33647	386.221
225.0000	-3.36686	387.125
224.8000	-3.36212	388.028
224.6000	-3.33255	388.929
224.4000	-3.31181	389.834
224.2000	-3.25374	390.732
224.0000	-3.14753	391.631
223.8000	-3.09339	392.524
223.6000	-3.06897	393.425
223.4000	-2.98014	394.325
223.2000	-2.93553	395.224
223.0000	-2.88043	396.126
222.8000	-2.81022	397.024
222.6000	-2.74604	397.925
222.4000	-2.72289	398.819
222.2000	-2.6531	399.71
222.0000	-2.65799	400.605
221.8000	-2.6114	401.495
221.6000	-2.45241	402.388
221.4000	-2.35411	403.279
221.2000	-2.25885	404.171
221.0000	-2.15888	405.069
220.8000	-2.07145	405.957
220.6000	-2.07172	406.848
220.4000	-2.03558	407.736
220.2000	-2.02892	408.624
220.0000	-1.91868	409.509
219.8000	-1.81777	410.396
219.6000	-1.7155	411.28
219.4000	-1.67472	412.168
219.2000	-1.59321	413.05
219.0000	-1.4871	413.932
218.8000	-1.4337	414.812
218.6000	-1.48079	415.684
218.4000	-1.43216	416.557
218.2000	-1.31985	417.426
218.0000	-1.2437	418.297
217.8000	-1.13498	419.168
217.6000	-1.02241	420.042
217.4000	-0.929475	420.914
217.2000	-0.904245	421.79
217.0000	-0.831576	422.662
216.8000	-0.828654	423.533
216.6000	-0.787982	424.405
216.4000	-0.716576	425.273
216.2000	-0.708947	426.147
216.0000	-0.609512	427.022
215.8000	-0.545679	427.9
215.6000	-0.451095	428.779
215.4000	-0.293518	429.658
215.2000	-0.200624	430.537
215.0000	-0.192935	431.42
214.8000	-0.259056	432.305
214.6000	-0.345738	433.193
214.4000	-0.348636	434.083
214.2000	-0.252959	434.977
214.0000	-0.133083	435.874
213.8000	0.0187496	436.774
213.6000	0.0481579	437.675
213.4000	0.0881367	438.581
213.2000	0.120683	439.487
213.0000	0.210099	440.395
212.8000	0.324524	441.312
212.6000	0.43769	442.231
212.4000	0.464176	443.157
212.2000	0.462856	444.092
212.0000	0.496854	445.033
211.8000	0.52535	445.983
211.6000	0.515164	446.939
211.4000	0.462406	447.898
211.2000	0.403215	448.864
211.0000	0.419452	449.832
210.8000	0.3806	450.809
210.6000	0.420504	451.787
210.4000	0.469302	452.771
210.2000	0.480629	453.759
210.0000	0.47381	454.754
209.8000	0.472257	455.753
209.6000	0.539059	456.756
209.4000	0.514813	457.761
209.2000	0.464214	458.77
209.0000	0.44158	459.781
208.8000	0.355557	460.8
208.6000	0.39679	461.82
208.4000	0.350538	462.849
208.2000	0.35801	463.876
208.0000	0.368696	464.901
207.8000	0.46859	465.938
207.6000	0.483434	466.98
207.4000	0.388214	468.019
207.2000	0.273212	469.064
207.0000	0.214464	470.111
206.8000	0.343739	471.164
206.6000	0.354938	472.219
206.4000	0.325722	473.273
206.2000	0.259453	474.332
206.0000	0.269982	475.391
205.8000	0.34589	476.451
205.6000	0.303842	477.509
205.4000	0.192535	478.572
205.2000	0.138156	479.634
205.0000	0.0898855	480.696
204.8000	0.158042	481.761
204.6000	0.0968937	482.83
204.4000	0.0795284	483.898
204.2000	0.0849581	484.964
204.0000	0.0672016	486.031
203.8000	0.0425053	487.102
203.6000	0.0254314	488.17
203.4000	0.102648	489.246
203.2000	0.0780912	490.32
203.0000	0.0201023	491.392
202.8000	0.0151854	492.464
202.6000	0.0811502	493.533
202.4000	0.115637	494.606
202.2000	0.112593	495.677
202.0000	0.0514072	496.745
201.8000	0.06971	497.812
201.6000	0.0583792	498.881
201.4000	0.284255	499.947
201.2000	0.279725	501.001
201.0000	0.163073	502.048
200.8000	0.0955477	503.088
200.6000	0.162181	504.122
200.4000	0.354978	505.149
200.2000	0.434558	506.165
200.0000	0.501397	507.176
199.8000	0.594243	508.172
199.6000	0.706023	509.158
199.4000	0.703718	510.131
199.2000	0.679648	511.083
199.0000	0.664561	512.025
198.8000	0.860358	512.946
198.6000	1.06003	513.853
198.4000	1.30941	514.736
198.2000	1.339	515.599
198.0000	1.53658	516.439
197.8000	1.60508	517.251
197.6000	1.67911	518.04
197.4000	1.72622	518.805
197.2000	1.79238	519.539
197.0000	1.91445	520.249
196.8000	1.95335	520.924
196.6000	1.96367	521.57
196.4000	2.02646	522.191
196.2000	1.99729	522.788
196.0000	1.95536	523.355
195.8000	2.02962	523.889
195.6000	2.12909	524.392
195.4000	2.16046	524.86
195.2000	2.27368	525.298
195.0000	2.33672	525.704

##### Extended Information
[Comments]
Sample name	Mota_1kx8_d05_tcep
Comment
User
Division
Company	EPFL

[Detailed Information]
Creation date	08.08.2017 13:42

Data array type	Linear data array * 2
Horizontal axis	Wavelength [nm]
Vertical axis(1)	CD [mdeg]
Vertical axis(2)	HT [V]
Start	250 nm
End	195 nm
Data interval	0.2 nm
Data points	276     

[Measurement Information]
Instrument Name	CD-Spectrometer
Model Name	J-815
Serial No.	A007961168

Accessory	PFD-425S
Accessory S/N	A001061180
  Temperature	24.97 C
  Control Sonsor	Holder
  Monitor Sensor	Holder
  Cell Length	10 mm

Photometric Mode	CD, HT
Measure Range	250 - 195 nm
Data pitch	0.2 nm
Sensitivity	Standard
D.I.T.	8 sec
Bandwidth	1.00 nm
Start Mode	Immediately
Scanning Speed	50 nm/min
Baseline Correction	None
Shutter Control	Auto
PMT Voltage	Auto
Accumulations	2
Solvent	PBS-tcep
Concentration	20 umol/L
End Temperature.	25 C
Start Temperature.	95 C
Temperature. Interval	5 C
Ramp Rate	5 C/min

