TITLE	Mota_1kx8_d05_tcep
DATA TYPE	
ORIGIN	JASCO
OWNER	
DATE	17/08/08
TIME	13:42:06
SPECTROMETER/DATA SYSTEM	
LOCALE	2055
RESOLUTION	
DELTAX	-0.2
XUNITS	NANOMETERS
YUNITS	CD [mdeg]
Y2UNITS	HT [V]
FIRSTX	  250.0000
LASTX	  195.0000
NPOINTS	     276
FIRSTY	     0.06239
MAXY	     2.64907
MINY	   -10.66118
XYDATA
250.0000	0.0623917	311.17
249.8000	0.0365747	311.458
249.6000	0.0107309	311.745
249.4000	-0.0135288	312.036
249.2000	-0.0273941	312.327
249.0000	-0.0640059	312.617
248.8000	-0.0962967	312.91
248.6000	-0.130664	313.202
248.4000	-0.136148	313.496
248.2000	-0.142494	313.791
248.0000	-0.173125	314.09
247.8000	-0.201995	314.388
247.6000	-0.238244	314.686
247.4000	-0.254064	314.989
247.2000	-0.294025	315.288
247.0000	-0.321041	315.588
246.8000	-0.342042	315.891
246.6000	-0.345313	316.197
246.4000	-0.354633	316.499
246.2000	-0.369421	316.806
246.0000	-0.378164	317.11
245.8000	-0.409743	317.419
245.6000	-0.438557	317.726
245.4000	-0.489635	318.038
245.2000	-0.544471	318.354
245.0000	-0.57273	318.675
244.8000	-0.591873	318.997
244.6000	-0.606559	319.324
244.4000	-0.645723	319.65
244.2000	-0.66443	319.981
244.0000	-0.717078	320.321
243.8000	-0.746396	320.657
243.6000	-0.803435	321.007
243.4000	-0.862535	321.356
243.2000	-0.906573	321.711
243.0000	-0.954833	322.07
242.8000	-0.996345	322.429
242.6000	-1.04291	322.793
242.4000	-1.09838	323.166
242.2000	-1.14432	323.543
242.0000	-1.207	323.925
241.8000	-1.28509	324.313
241.6000	-1.3584	324.706
241.4000	-1.40627	325.103
241.2000	-1.45163	325.508
241.0000	-1.53227	325.921
240.8000	-1.61631	326.337
240.6000	-1.67278	326.766
240.4000	-1.74989	327.198
240.2000	-1.83661	327.638
240.0000	-1.92683	328.083
239.8000	-2.02969	328.539
239.6000	-2.12289	329.004
239.4000	-2.24901	329.475
239.2000	-2.38288	329.953
239.0000	-2.48967	330.442
238.8000	-2.57383	330.94
238.6000	-2.68853	331.447
238.4000	-2.80481	331.961
238.2000	-2.94365	332.487
238.0000	-3.10724	333.021
237.8000	-3.21633	333.566
237.6000	-3.35383	334.12
237.4000	-3.52345	334.681
237.2000	-3.66174	335.254
237.0000	-3.79638	335.833
236.8000	-3.90994	336.425
236.6000	-4.0361	337.03
236.4000	-4.17861	337.646
236.2000	-4.28112	338.269
236.0000	-4.42565	338.907
235.8000	-4.56992	339.552
235.6000	-4.73607	340.207
235.4000	-4.90645	340.875
235.2000	-5.02037	341.552
235.0000	-5.15445	342.24
234.8000	-5.33292	342.937
234.6000	-5.50791	343.644
234.4000	-5.67697	344.367
234.2000	-5.84814	345.097
234.0000	-6.00866	345.838
233.8000	-6.16966	346.593
233.6000	-6.32179	347.357
233.4000	-6.46262	348.133
233.2000	-6.59791	348.913
233.0000	-6.79145	349.705
232.8000	-6.94464	350.501
232.6000	-7.08815	351.31
232.4000	-7.2395	352.13
232.2000	-7.40945	352.96
232.0000	-7.53996	353.797
231.8000	-7.66439	354.648
231.6000	-7.80295	355.506
231.4000	-7.90421	356.376
231.2000	-8.05623	357.255
231.0000	-8.20088	358.139
230.8000	-8.32877	359.038
230.6000	-8.47179	359.941
230.4000	-8.61852	360.853
230.2000	-8.78074	361.771
230.0000	-8.91304	362.693
229.8000	-9.03201	363.62
229.6000	-9.16191	364.554
229.4000	-9.26746	365.494
229.2000	-9.39587	366.442
229.0000	-9.47522	367.398
228.8000	-9.5485	368.354
228.6000	-9.63723	369.316
228.4000	-9.74075	370.286
228.2000	-9.79906	371.262
228.0000	-9.89683	372.246
227.8000	-10.0464	373.232
227.6000	-10.1466	374.217
227.4000	-10.2188	375.205
227.2000	-10.2831	376.199
227.0000	-10.3324	377.193
226.8000	-10.4085	378.195
226.6000	-10.5049	379.201
226.4000	-10.5591	380.213
226.2000	-10.5986	381.234
226.0000	-10.6247	382.257
225.8000	-10.6468	383.282
225.6000	-10.6612	384.316
225.4000	-10.6512	385.35
225.2000	-10.6475	386.388
225.0000	-10.5926	387.427
224.8000	-10.5933	388.466
224.6000	-10.5795	389.513
224.4000	-10.5885	390.559
224.2000	-10.5495	391.608
224.0000	-10.4912	392.666
223.8000	-10.4732	393.725
223.6000	-10.3899	394.788
223.4000	-10.3868	395.858
223.2000	-10.3577	396.928
223.0000	-10.3028	398.01
222.8000	-10.2899	399.09
222.6000	-10.2468	400.176
222.4000	-10.1619	401.264
222.2000	-10.088	402.359
222.0000	-10.0802	403.458
221.8000	-10.082	404.559
221.6000	-10.0607	405.664
221.4000	-9.95599	406.77
221.2000	-9.82123	407.883
221.0000	-9.64841	409.003
220.8000	-9.52101	410.126
220.6000	-9.33406	411.256
220.4000	-9.24728	412.389
220.2000	-9.15257	413.525
220.0000	-9.02349	414.664
219.8000	-8.86999	415.807
219.6000	-8.7344	416.945
219.4000	-8.62206	418.093
219.2000	-8.54155	419.246
219.0000	-8.37652	420.4
218.8000	-8.20952	421.554
218.6000	-8.18886	422.714
218.4000	-8.1462	423.876
218.2000	-8.02847	425.047
218.0000	-7.85104	426.215
217.8000	-7.6148	427.389
217.6000	-7.506	428.564
217.4000	-7.46013	429.734
217.2000	-7.3194	430.912
217.0000	-7.26547	432.089
216.8000	-7.18654	433.27
216.6000	-7.1536	434.459
216.4000	-7.08977	435.638
216.2000	-6.92075	436.831
216.0000	-6.66222	438.022
215.8000	-6.49074	439.216
215.6000	-6.38148	440.417
215.4000	-6.32982	441.616
215.2000	-6.18861	442.82
215.0000	-5.96919	444.027
214.8000	-5.90462	445.237
214.6000	-5.91943	446.454
214.4000	-5.88026	447.668
214.2000	-5.74864	448.891
214.0000	-5.71506	450.115
213.8000	-5.61753	451.344
213.6000	-5.51581	452.577
213.4000	-5.42124	453.814
213.2000	-5.32284	455.061
213.0000	-5.23442	456.308
212.8000	-5.03328	457.558
212.6000	-4.95107	458.813
212.4000	-4.83481	460.074
212.2000	-4.78945	461.34
212.0000	-4.72264	462.606
211.8000	-4.53169	463.879
211.6000	-4.43378	465.159
211.4000	-4.35482	466.439
211.2000	-4.39792	467.723
211.0000	-4.34304	469.015
210.8000	-4.18915	470.315
210.6000	-4.10378	471.621
210.4000	-3.99588	472.93
210.2000	-3.87425	474.246
210.0000	-3.70652	475.565
209.8000	-3.5541	476.887
209.6000	-3.59607	478.207
209.4000	-3.61345	479.534
209.2000	-3.65625	480.868
209.0000	-3.61698	482.208
208.8000	-3.43469	483.555
208.6000	-3.2759	484.9
208.4000	-3.16241	486.251
208.2000	-3.10976	487.603
208.0000	-2.93771	488.958
207.8000	-2.73586	490.313
207.6000	-2.61347	491.671
207.4000	-2.6033	493.031
207.2000	-2.71009	494.391
207.0000	-2.61743	495.758
206.8000	-2.52838	497.121
206.6000	-2.35777	498.485
206.4000	-2.20184	499.857
206.2000	-2.23173	501.224
206.0000	-2.10655	502.597
205.8000	-2.03482	503.965
205.6000	-2.02033	505.333
205.4000	-1.92586	506.706
205.2000	-1.79074	508.074
205.0000	-1.6711	509.441
204.8000	-1.67417	510.811
204.6000	-1.50632	512.182
204.4000	-1.23026	513.558
204.2000	-0.901419	514.929
204.0000	-0.683775	516.306
203.8000	-0.595298	517.683
203.6000	-0.515156	519.052
203.4000	-0.325074	520.426
203.2000	-0.128662	521.792
203.0000	0.162988	523.168
202.8000	0.295882	524.537
202.6000	0.558763	525.901
202.4000	0.717805	527.258
202.2000	0.853841	528.61
202.0000	0.91538	529.963
201.8000	0.967315	531.311
201.6000	1.1635	532.651
201.4000	1.51409	533.984
201.2000	1.518	535.312
201.0000	1.50122	536.631
200.8000	1.55283	537.942
200.6000	1.91491	539.24
200.4000	1.89648	540.527
200.2000	1.92352	541.806
200.0000	2.05427	543.075
199.8000	2.06242	544.333
199.6000	2.2396	545.578
199.4000	2.2185	546.802
199.2000	2.32187	548.021
199.0000	2.46479	549.22
198.8000	2.64907	550.407
198.6000	2.6153	551.576
198.4000	2.44989	552.726
198.2000	2.41923	553.856
198.0000	2.33192	554.961
197.8000	2.13174	556.045
197.6000	1.88497	557.097
197.4000	1.74044	558.127
197.2000	1.8527	559.135
197.0000	1.84876	560.121
196.8000	1.92913	561.09
196.6000	1.90004	562.038
196.4000	1.65675	562.972
196.2000	1.47441	563.888
196.0000	1.45708	564.787
195.8000	1.53363	565.661
195.6000	1.52367	566.507
195.4000	1.7572	567.329
195.2000	2.01482	568.126
195.0000	2.05088	568.908

##### Extended Information
[Comments]
Sample name	Mota_1kx8_d05_tcep
Comment
User
Division
Company	EPFL

[Detailed Information]
Creation date	08.08.2017 13:42

Data array type	Linear data array * 2
Horizontal axis	Wavelength [nm]
Vertical axis(1)	CD [mdeg]
Vertical axis(2)	HT [V]
Start	250 nm
End	195 nm
Data interval	0.2 nm
Data points	276     

[Measurement Information]
Instrument Name	CD-Spectrometer
Model Name	J-815
Serial No.	A007961168

Accessory	PFD-425S
Accessory S/N	A001061180
  Temperature	24.97 C
  Control Sonsor	Holder
  Monitor Sensor	Holder
  Cell Length	10 mm

Photometric Mode	CD, HT
Measure Range	250 - 195 nm
Data pitch	0.2 nm
Sensitivity	Standard
D.I.T.	8 sec
Bandwidth	1.00 nm
Start Mode	Immediately
Scanning Speed	50 nm/min
Baseline Correction	None
Shutter Control	Auto
PMT Voltage	Auto
Accumulations	2
Solvent	PBS-tcep
Concentration	20 umol/L
End Temperature.	25 C
Start Temperature.	95 C
Temperature. Interval	5 C
Ramp Rate	5 C/min

