TITLE	Mota_1kx8_d05_tcep
DATA TYPE	
ORIGIN	JASCO
OWNER	
DATE	17/08/08
TIME	13:42:06
SPECTROMETER/DATA SYSTEM	
LOCALE	2055
RESOLUTION	
DELTAX	-0.2
XUNITS	NANOMETERS
YUNITS	CD [mdeg]
Y2UNITS	HT [V]
FIRSTX	  250.0000
LASTX	  195.0000
NPOINTS	     276
FIRSTY	     0.13449
MAXY	     1.80489
MINY	    -4.38601
XYDATA
250.0000	0.134491	311.459
249.8000	0.105481	311.761
249.6000	0.111677	312.061
249.4000	0.0871382	312.363
249.2000	0.0741461	312.668
249.0000	0.0596287	312.97
248.8000	0.0497149	313.276
248.6000	0.0533667	313.58
248.4000	0.0723257	313.888
248.2000	0.0830296	314.197
248.0000	0.0825956	314.509
247.8000	0.0474184	314.823
247.6000	-0.00986233	315.137
247.4000	-0.0480303	315.451
247.2000	-0.0936283	315.769
247.0000	-0.144847	316.087
246.8000	-0.186735	316.407
246.6000	-0.187304	316.729
246.4000	-0.208874	317.052
246.2000	-0.218271	317.378
246.0000	-0.237539	317.709
245.8000	-0.261749	318.04
245.6000	-0.260073	318.372
245.4000	-0.286672	318.708
245.2000	-0.291839	319.049
245.0000	-0.321266	319.391
244.8000	-0.363904	319.74
244.6000	-0.388523	320.091
244.4000	-0.424072	320.439
244.2000	-0.467189	320.798
244.0000	-0.485178	321.156
243.8000	-0.515101	321.522
243.6000	-0.590593	321.895
243.4000	-0.66813	322.274
243.2000	-0.697051	322.652
243.0000	-0.77756	323.039
242.8000	-0.811406	323.431
242.6000	-0.855197	323.827
242.4000	-0.907829	324.231
242.2000	-0.957123	324.634
242.0000	-0.998001	325.05
241.8000	-1.08593	325.469
241.6000	-1.19429	325.895
241.4000	-1.26309	326.326
241.2000	-1.30781	326.766
241.0000	-1.33892	327.212
240.8000	-1.39574	327.665
240.6000	-1.43338	328.125
240.4000	-1.46504	328.593
240.2000	-1.49816	329.071
240.0000	-1.56483	329.555
239.8000	-1.60353	330.048
239.6000	-1.61904	330.55
239.4000	-1.68673	331.058
239.2000	-1.76131	331.575
239.0000	-1.81923	332.101
238.8000	-1.89601	332.638
238.6000	-1.94306	333.181
238.4000	-2.04807	333.737
238.2000	-2.08594	334.298
238.0000	-2.14722	334.873
237.8000	-2.22384	335.458
237.6000	-2.2643	336.051
237.4000	-2.33732	336.654
237.2000	-2.3899	337.269
237.0000	-2.41455	337.888
236.8000	-2.45083	338.52
236.6000	-2.52158	339.161
236.4000	-2.58064	339.811
236.2000	-2.61911	340.474
236.0000	-2.6778	341.146
235.8000	-2.7025	341.827
235.6000	-2.74412	342.523
235.4000	-2.83037	343.223
235.2000	-2.91868	343.931
235.0000	-2.94549	344.649
234.8000	-3.01644	345.375
234.6000	-3.11279	346.108
234.4000	-3.16487	346.859
234.2000	-3.20646	347.615
234.0000	-3.24865	348.384
233.8000	-3.33096	349.164
233.6000	-3.39503	349.947
233.4000	-3.42545	350.743
233.2000	-3.49434	351.547
233.0000	-3.6163	352.357
232.8000	-3.71001	353.171
232.6000	-3.73852	353.996
232.4000	-3.75818	354.826
232.2000	-3.77465	355.665
232.0000	-3.85315	356.509
231.8000	-3.91588	357.366
231.6000	-3.99993	358.231
231.4000	-4.05093	359.103
231.2000	-4.08115	359.981
231.0000	-4.10573	360.865
230.8000	-4.15356	361.758
230.6000	-4.15264	362.651
230.4000	-4.19933	363.556
230.2000	-4.21416	364.46
230.0000	-4.22182	365.371
229.8000	-4.19718	366.286
229.6000	-4.25802	367.203
229.4000	-4.2945	368.124
229.2000	-4.32674	369.043
229.0000	-4.3705	369.971
228.8000	-4.38601	370.9
228.6000	-4.37515	371.839
228.4000	-4.36393	372.777
228.2000	-4.35355	373.72
228.0000	-4.35449	374.664
227.8000	-4.32601	375.609
227.6000	-4.27457	376.55
227.4000	-4.25508	377.492
227.2000	-4.23316	378.436
227.0000	-4.23253	379.381
226.8000	-4.21162	380.329
226.6000	-4.16749	381.275
226.4000	-4.09437	382.223
226.2000	-3.99057	383.173
226.0000	-3.98878	384.124
225.8000	-3.91655	385.077
225.6000	-3.92466	386.031
225.4000	-3.90338	386.989
225.2000	-3.78112	387.935
225.0000	-3.70481	388.886
224.8000	-3.64959	389.828
224.6000	-3.65537	390.772
224.4000	-3.66551	391.719
224.2000	-3.63314	392.66
224.0000	-3.57356	393.608
223.8000	-3.52072	394.551
223.6000	-3.48825	395.497
223.4000	-3.48023	396.441
223.2000	-3.50591	397.383
223.0000	-3.48626	398.33
222.8000	-3.43109	399.275
222.6000	-3.35256	400.223
222.4000	-3.27862	401.165
222.2000	-3.21336	402.104
222.0000	-3.09107	403.043
221.8000	-3.05182	403.98
221.6000	-2.93949	404.92
221.4000	-2.80018	405.858
221.2000	-2.69728	406.795
221.0000	-2.68452	407.735
220.8000	-2.67711	408.672
220.6000	-2.61411	409.607
220.4000	-2.55635	410.539
220.2000	-2.48282	411.47
220.0000	-2.48073	412.4
219.8000	-2.48398	413.331
219.6000	-2.45949	414.258
219.4000	-2.36405	415.19
219.2000	-2.35011	416.119
219.0000	-2.26189	417.046
218.8000	-2.14856	417.972
218.6000	-2.14973	418.898
218.4000	-2.03614	419.82
218.2000	-2.01446	420.747
218.0000	-2.00103	421.669
217.8000	-1.83422	422.594
217.6000	-1.77922	423.515
217.4000	-1.73674	424.432
217.2000	-1.75436	425.351
217.0000	-1.68628	426.267
216.8000	-1.64457	427.184
216.6000	-1.54856	428.104
216.4000	-1.42552	429.021
216.2000	-1.3805	429.933
216.0000	-1.3888	430.849
215.8000	-1.43412	431.768
215.6000	-1.41775	432.687
215.4000	-1.4654	433.606
215.2000	-1.48626	434.532
215.0000	-1.50675	435.453
214.8000	-1.4776	436.38
214.6000	-1.44811	437.305
214.4000	-1.38888	438.235
214.2000	-1.32473	439.173
214.0000	-1.26317	440.108
213.8000	-1.16985	441.051
213.6000	-1.18072	441.999
213.4000	-1.22136	442.946
213.2000	-1.13587	443.897
213.0000	-1.15383	444.848
212.8000	-1.18526	445.805
212.6000	-1.24688	446.765
212.4000	-1.23732	447.73
212.2000	-1.28126	448.7
212.0000	-1.24093	449.676
211.8000	-1.26064	450.656
211.6000	-1.25282	451.644
211.4000	-1.16063	452.633
211.2000	-1.12781	453.625
211.0000	-1.10074	454.625
210.8000	-1.03797	455.629
210.6000	-0.933307	456.637
210.4000	-1.02972	457.654
210.2000	-1.03965	458.669
210.0000	-0.956339	459.692
209.8000	-0.914866	460.721
209.6000	-0.885303	461.755
209.4000	-0.854664	462.793
209.2000	-0.752772	463.833
209.0000	-0.740772	464.876
208.8000	-0.696704	465.926
208.6000	-0.655485	466.981
208.4000	-0.561733	468.041
208.2000	-0.607844	469.098
208.0000	-0.621312	470.162
207.8000	-0.608572	471.224
207.6000	-0.494267	472.288
207.4000	-0.496959	473.359
207.2000	-0.526633	474.426
207.0000	-0.441994	475.502
206.8000	-0.24295	476.581
206.6000	-0.231415	477.66
206.4000	-0.182407	478.746
206.2000	-0.121893	479.832
206.0000	-0.0708309	480.919
205.8000	0.0682604	482.007
205.6000	0.0832443	483.092
205.4000	0.179768	484.18
205.2000	0.279961	485.271
205.0000	0.351133	486.361
204.8000	0.363459	487.456
204.6000	0.344597	488.547
204.4000	0.460366	489.647
204.2000	0.466917	490.744
204.0000	0.534586	491.84
203.8000	0.595786	492.941
203.6000	0.896651	494.042
203.4000	1.00482	495.143
203.2000	0.975745	496.241
203.0000	0.975243	497.342
202.8000	1.07617	498.442
202.6000	1.13496	499.546
202.4000	1.25041	500.649
202.2000	1.33889	501.751
202.0000	1.43109	502.845
201.8000	1.45453	503.943
201.6000	1.52789	505.033
201.4000	1.60736	506.124
201.2000	1.65129	507.209
201.0000	1.56964	508.29
200.8000	1.4222	509.361
200.6000	1.40243	510.428
200.4000	1.28013	511.484
200.2000	1.17076	512.532
200.0000	1.31564	513.571
199.8000	1.53836	514.604
199.6000	1.54045	515.621
199.4000	1.51474	516.624
199.2000	1.48548	517.611
199.0000	1.44628	518.585
198.8000	1.50058	519.543
198.6000	1.52065	520.485
198.4000	1.34721	521.407
198.2000	1.29749	522.306
198.0000	1.35867	523.181
197.8000	1.35409	524.032
197.6000	1.35863	524.861
197.4000	1.4314	525.669
197.2000	1.52373	526.451
197.0000	1.48125	527.205
196.8000	1.54718	527.929
196.6000	1.50209	528.626
196.4000	1.62112	529.295
196.2000	1.75877	529.938
196.0000	1.63761	530.554
195.8000	1.48491	531.141
195.6000	1.48651	531.697
195.4000	1.57322	532.222
195.2000	1.70404	532.713
195.0000	1.80489	533.171

##### Extended Information
[Comments]
Sample name	Mota_1kx8_d05_tcep
Comment
User
Division
Company	EPFL

[Detailed Information]
Creation date	08.08.2017 13:42

Data array type	Linear data array * 2
Horizontal axis	Wavelength [nm]
Vertical axis(1)	CD [mdeg]
Vertical axis(2)	HT [V]
Start	250 nm
End	195 nm
Data interval	0.2 nm
Data points	276     

[Measurement Information]
Instrument Name	CD-Spectrometer
Model Name	J-815
Serial No.	A007961168

Accessory	PFD-425S
Accessory S/N	A001061180
  Temperature	24.97 C
  Control Sonsor	Holder
  Monitor Sensor	Holder
  Cell Length	10 mm

Photometric Mode	CD, HT
Measure Range	250 - 195 nm
Data pitch	0.2 nm
Sensitivity	Standard
D.I.T.	8 sec
Bandwidth	1.00 nm
Start Mode	Immediately
Scanning Speed	50 nm/min
Baseline Correction	None
Shutter Control	Auto
PMT Voltage	Auto
Accumulations	2
Solvent	PBS-tcep
Concentration	20 umol/L
End Temperature.	25 C
Start Temperature.	95 C
Temperature. Interval	5 C
Ramp Rate	5 C/min

