TITLE	Mota_1kx8_d03_noTCEP
DATA TYPE	
ORIGIN	JASCO
OWNER	
DATE	17/07/20
TIME	13:02:24
SPECTROMETER/DATA SYSTEM	
LOCALE	2055
RESOLUTION	
DELTAX	-0.2
XUNITS	NANOMETERS
YUNITS	CD [mdeg]
Y2UNITS	HT [V]
FIRSTX	  250.0000
LASTX	  195.0000
NPOINTS	     276
FIRSTY	    -0.35695
MAXY	     0.15343
MINY	   -43.65042
XYDATA
250.0000	-0.356947	309.498
249.8000	-0.381362	309.778
249.6000	-0.415401	310.058
249.4000	-0.471929	310.339
249.2000	-0.513167	310.626
249.0000	-0.561448	310.913
248.8000	-0.618587	311.202
248.6000	-0.659058	311.493
248.4000	-0.698188	311.786
248.2000	-0.727694	312.08
248.0000	-0.763015	312.379
247.8000	-0.787366	312.679
247.6000	-0.819315	312.983
247.4000	-0.851739	313.29
247.2000	-0.896938	313.598
247.0000	-0.957833	313.905
246.8000	-1.0226	314.216
246.6000	-1.0745	314.529
246.4000	-1.15994	314.843
246.2000	-1.24235	315.163
246.0000	-1.31771	315.488
245.8000	-1.37617	315.815
245.6000	-1.46539	316.148
245.4000	-1.56344	316.482
245.2000	-1.65542	316.827
245.0000	-1.73468	317.173
244.8000	-1.8044	317.521
244.6000	-1.9058	317.878
244.4000	-2.01137	318.238
244.2000	-2.12637	318.608
244.0000	-2.26251	318.982
243.8000	-2.38515	319.361
243.6000	-2.51094	319.75
243.4000	-2.66329	320.147
243.2000	-2.82573	320.55
243.0000	-2.96669	320.959
242.8000	-3.10442	321.376
242.6000	-3.24762	321.799
242.4000	-3.40462	322.232
242.2000	-3.53989	322.674
242.0000	-3.67894	323.129
241.8000	-3.84313	323.586
241.6000	-4.03741	324.057
241.4000	-4.2773	324.536
241.2000	-4.48832	325.025
241.0000	-4.71699	325.528
240.8000	-4.98568	326.04
240.6000	-5.22658	326.565
240.4000	-5.45587	327.1
240.2000	-5.70032	327.652
240.0000	-5.95776	328.215
239.8000	-6.19053	328.795
239.6000	-6.44419	329.39
239.4000	-6.70047	329.995
239.2000	-6.97545	330.617
239.0000	-7.24738	331.255
238.8000	-7.54137	331.909
238.6000	-7.85558	332.578
238.4000	-8.18641	333.262
238.2000	-8.52911	333.966
238.0000	-8.87822	334.687
237.8000	-9.21931	335.429
237.6000	-9.58801	336.187
237.4000	-9.93	336.965
237.2000	-10.2947	337.765
237.0000	-10.6824	338.589
236.8000	-11.0601	339.429
236.6000	-11.4518	340.294
236.4000	-11.8837	341.183
236.2000	-12.3436	342.092
236.0000	-12.7919	343.027
235.8000	-13.2693	343.983
235.6000	-13.7775	344.965
235.4000	-14.2617	345.969
235.2000	-14.7911	346.999
235.0000	-15.3243	348.052
234.8000	-15.8385	349.132
234.6000	-16.3455	350.236
234.4000	-16.8752	351.368
234.2000	-17.3563	352.529
234.0000	-17.8569	353.715
233.8000	-18.3652	354.929
233.6000	-18.8621	356.168
233.4000	-19.3875	357.433
233.2000	-19.9428	358.724
233.0000	-20.489	360.033
232.8000	-21.0547	361.365
232.6000	-21.632	362.72
232.4000	-22.1797	364.098
232.2000	-22.7116	365.501
232.0000	-23.2926	366.926
231.8000	-23.9114	368.376
231.6000	-24.4749	369.845
231.4000	-25.045	371.337
231.2000	-25.5903	372.846
231.0000	-26.1846	374.372
230.8000	-26.7689	375.913
230.6000	-27.34	377.465
230.4000	-27.8838	379.029
230.2000	-28.4439	380.606
230.0000	-28.963	382.192
229.8000	-29.4845	383.785
229.6000	-29.9435	385.388
229.4000	-30.4336	386.991
229.2000	-30.962	388.601
229.0000	-31.4555	390.214
228.8000	-31.9707	391.83
228.6000	-32.4816	393.449
228.4000	-32.9672	395.067
228.2000	-33.4153	396.686
228.0000	-33.8858	398.3
227.8000	-34.3348	399.915
227.6000	-34.6977	401.519
227.4000	-35.1724	403.115
227.2000	-35.596	404.709
227.0000	-36.0595	406.294
226.8000	-36.5458	407.872
226.6000	-36.988	409.443
226.4000	-37.4347	411.009
226.2000	-37.7919	412.568
226.0000	-38.1374	414.12
225.8000	-38.5557	415.662
225.6000	-38.9097	417.194
225.4000	-39.1742	418.715
225.2000	-39.4071	420.226
225.0000	-39.644	421.727
224.8000	-39.9411	423.216
224.6000	-40.2411	424.693
224.4000	-40.5671	426.164
224.2000	-40.8707	427.623
224.0000	-41.159	429.075
223.8000	-41.3659	430.524
223.6000	-41.5814	431.965
223.4000	-41.7252	433.398
223.2000	-41.8675	434.832
223.0000	-42.1941	436.261
222.8000	-42.5122	437.688
222.6000	-42.6603	439.112
222.4000	-42.7955	440.529
222.2000	-42.894	441.939
222.0000	-42.9621	443.349
221.8000	-43.0105	444.755
221.6000	-43.0762	446.157
221.4000	-43.1167	447.554
221.2000	-43.1739	448.949
221.0000	-43.2949	450.343
220.8000	-43.3815	451.737
220.6000	-43.3244	453.128
220.4000	-43.3923	454.517
220.2000	-43.2544	455.911
220.0000	-43.1497	457.301
219.8000	-43.0684	458.694
219.6000	-43.1267	460.09
219.4000	-43.1649	461.488
219.2000	-43.1128	462.893
219.0000	-43.1021	464.303
218.8000	-43.2182	465.72
218.6000	-43.3763	467.144
218.4000	-43.512	468.576
218.2000	-43.5808	470.018
218.0000	-43.6504	471.475
217.8000	-43.5657	472.936
217.6000	-43.4197	474.414
217.4000	-43.3103	475.906
217.2000	-43.2891	477.403
217.0000	-43.2113	478.921
216.8000	-43.0618	480.45
216.6000	-43.1796	481.999
216.4000	-43.169	483.564
216.2000	-42.9788	485.147
216.0000	-42.8875	486.753
215.8000	-42.8135	488.381
215.6000	-42.7665	490.031
215.4000	-42.6711	491.707
215.2000	-42.741	493.411
215.0000	-42.6121	495.148
214.8000	-42.5621	496.921
214.6000	-42.4249	498.724
214.4000	-42.3929	500.563
214.2000	-42.378	502.437
214.0000	-42.4407	504.352
213.8000	-42.4597	506.305
213.6000	-42.6685	508.293
213.4000	-42.7029	510.322
213.2000	-42.7759	512.397
213.0000	-42.7899	514.516
212.8000	-42.841	516.682
212.6000	-42.9095	518.891
212.4000	-42.9325	521.147
212.2000	-42.7817	523.45
212.0000	-42.632	525.804
211.8000	-42.2096	528.207
211.6000	-41.9887	530.664
211.4000	-41.8087	533.167
211.2000	-41.7272	535.72
211.0000	-41.4884	538.327
210.8000	-41.3664	540.988
210.6000	-41.1697	543.702
210.4000	-41.0594	546.464
210.2000	-41.113	549.283
210.0000	-41.0743	552.147
209.8000	-40.5963	555.064
209.6000	-40.0884	558.024
209.4000	-39.9336	561.032
209.2000	-39.6164	564.083
209.0000	-39.0311	567.179
208.8000	-38.7721	570.319
208.6000	-38.6536	573.494
208.4000	-38.3818	576.705
208.2000	-37.8496	579.946
208.0000	-37.2371	583.215
207.8000	-36.3113	586.508
207.6000	-35.6159	589.818
207.4000	-34.6391	593.144
207.2000	-33.5461	596.477
207.0000	-32.7117	599.819
206.8000	-31.8281	603.157
206.6000	-30.7965	606.489
206.4000	-29.8533	609.806
206.2000	-28.4957	613.103
206.0000	-27.279	616.375
205.8000	-25.8601	619.612
205.6000	-24.8237	622.811
205.4000	-23.7998	625.96
205.2000	-22.9375	629.058
205.0000	-21.9181	632.095
204.8000	-20.6362	635.068
204.6000	-19.8169	637.969
204.4000	-18.9468	640.795
204.2000	-17.6772	643.538
204.0000	-16.7148	646.198
203.8000	-15.8196	648.769
203.6000	-15.0591	651.244
203.4000	-13.9912	653.626
203.2000	-13.6852	655.905
203.0000	-13.0868	658.085
202.8000	-12.0437	660.164
202.6000	-10.8438	662.142
202.4000	-10.1452	664.013
202.2000	-9.48907	665.779
202.0000	-8.18922	667.444
201.8000	-7.11333	669.004
201.6000	-6.44756	670.457
201.4000	-5.69979	671.81
201.2000	-5.40609	673.06
201.0000	-5.17752	674.215
200.8000	-4.28207	675.28
200.6000	-4.45743	676.248
200.4000	-4.36813	677.129
200.2000	-4.04902	677.925
200.0000	-3.95076	678.643
199.8000	-4.02094	679.284
199.6000	-3.94311	679.855
199.4000	-3.93476	680.358
199.2000	-3.95483	680.801
199.0000	-4.15784	681.187
198.8000	-3.58073	681.524
198.6000	-3.36582	681.813
198.4000	-3.11836	682.058
198.2000	-2.63784	682.267
198.0000	-1.8283	682.442
197.8000	-1.55896	682.583
197.6000	-2.00593	682.698
197.4000	-1.64012	682.792
197.2000	-1.50389	682.864
197.0000	-1.45774	682.919
196.8000	-1.42375	682.96
196.6000	-0.520244	682.992
196.4000	-0.0170916	683.015
196.2000	0.153433	683.026
196.0000	-0.237164	683.032
195.8000	-0.346403	683.032
195.6000	-0.309898	683.029
195.4000	-0.293995	683.022
195.2000	-0.256127	683.013
195.0000	-0.299377	683.001

##### Extended Information
[Comments]
Sample name	Mota_1kx8_d03_noTCEP
Comment
User
Division
Company	EPFL

[Detailed Information]
Creation date	20.07.2017 13:02

Data array type	Linear data array * 2
Horizontal axis	Wavelength [nm]
Vertical axis(1)	CD [mdeg]
Vertical axis(2)	HT [V]
Start	250 nm
End	195 nm
Data interval	0.2 nm
Data points	276     

[Measurement Information]
Instrument Name	CD-Spectrometer
Model Name	J-815
Serial No.	A007961168

Accessory	PFD-425S
Accessory S/N	A001061180
  Temperature	24.97 C
  Control Sonsor	Holder
  Monitor Sensor	Holder
  Cell Length	10 mm

Photometric Mode	CD, HT
Measure Range	250 - 195 nm
Data pitch	0.2 nm
Sensitivity	Standard
D.I.T.	8 sec
Bandwidth	1.00 nm
Start Mode	Immediately
Scanning Speed	50 nm/min
Baseline Correction	None
Shutter Control	Auto
PMT Voltage	Auto
Accumulations	2
Solvent	PBS 
Concentration	20 umol/L
End Temperature.	25 C
Start Temperature.	90 C
Temperature. Interval	5 C
Ramp Rate	5 C/min

