TITLE	Mota_1kx8_d03_noTCEP
DATA TYPE	
ORIGIN	JASCO
OWNER	
DATE	17/07/20
TIME	13:02:24
SPECTROMETER/DATA SYSTEM	
LOCALE	2055
RESOLUTION	
DELTAX	-0.2
XUNITS	NANOMETERS
YUNITS	CD [mdeg]
Y2UNITS	HT [V]
FIRSTX	  250.0000
LASTX	  195.0000
NPOINTS	     276
FIRSTY	    -0.57310
MAXY	     1.97703
MINY	   -35.35004
XYDATA
250.0000	-0.573096	309.21
249.8000	-0.61058	309.493
249.6000	-0.660643	309.78
249.4000	-0.706006	310.067
249.2000	-0.731482	310.357
249.0000	-0.794498	310.648
248.8000	-0.848865	310.943
248.6000	-0.890138	311.239
248.4000	-0.92802	311.539
248.2000	-0.97527	311.839
248.0000	-1.02313	312.139
247.8000	-1.07445	312.443
247.6000	-1.11668	312.752
247.4000	-1.19085	313.061
247.2000	-1.24468	313.374
247.0000	-1.29252	313.687
246.8000	-1.34664	314.003
246.6000	-1.41554	314.322
246.4000	-1.49771	314.643
246.2000	-1.57654	314.969
246.0000	-1.65713	315.302
245.8000	-1.73009	315.633
245.6000	-1.80756	315.972
245.4000	-1.89841	316.313
245.2000	-1.9867	316.661
245.0000	-2.07675	317.013
244.8000	-2.15804	317.367
244.6000	-2.2414	317.729
244.4000	-2.32913	318.097
244.2000	-2.44724	318.471
244.0000	-2.56727	318.849
243.8000	-2.69894	319.24
243.6000	-2.83292	319.638
243.4000	-2.9606	320.044
243.2000	-3.07981	320.454
243.0000	-3.21811	320.87
242.8000	-3.34961	321.292
242.6000	-3.52459	321.721
242.4000	-3.67317	322.159
242.2000	-3.8259	322.609
242.0000	-3.98366	323.067
241.8000	-4.15613	323.534
241.6000	-4.33246	324.011
241.4000	-4.52441	324.501
241.2000	-4.71175	324.999
241.0000	-4.92816	325.513
240.8000	-5.14899	326.036
240.6000	-5.35213	326.568
240.4000	-5.57056	327.117
240.2000	-5.79301	327.673
240.0000	-6.00178	328.245
239.8000	-6.22153	328.828
239.6000	-6.46978	329.428
239.4000	-6.71487	330.041
239.2000	-6.97606	330.669
239.0000	-7.2357	331.311
238.8000	-7.5039	331.968
238.6000	-7.75217	332.645
238.4000	-7.99849	333.339
238.2000	-8.28	334.051
238.0000	-8.56782	334.781
237.8000	-8.8892	335.526
237.6000	-9.2276	336.293
237.4000	-9.52954	337.08
237.2000	-9.8103	337.883
237.0000	-10.1188	338.708
236.8000	-10.4489	339.554
236.6000	-10.7687	340.421
236.4000	-11.0778	341.314
236.2000	-11.422	342.23
236.0000	-11.7495	343.169
235.8000	-12.062	344.132
235.6000	-12.3972	345.115
235.4000	-12.7462	346.122
235.2000	-13.0917	347.154
235.0000	-13.4585	348.208
234.8000	-13.7978	349.287
234.6000	-14.1633	350.392
234.4000	-14.5243	351.522
234.2000	-14.9033	352.676
234.0000	-15.2617	353.855
233.8000	-15.664	355.062
233.6000	-16.0593	356.293
233.4000	-16.4762	357.551
233.2000	-16.8772	358.836
233.0000	-17.2653	360.138
232.8000	-17.6789	361.465
232.6000	-18.0709	362.811
232.4000	-18.4945	364.185
232.2000	-18.9128	365.581
232.0000	-19.3062	366.996
231.8000	-19.755	368.433
231.6000	-20.207	369.89
231.4000	-20.6217	371.369
231.2000	-21.0713	372.865
231.0000	-21.422	374.38
230.8000	-21.8069	375.909
230.6000	-22.2326	377.453
230.4000	-22.6362	379.007
230.2000	-22.9811	380.572
230.0000	-23.3716	382.148
229.8000	-23.756	383.732
229.6000	-24.0987	385.326
229.4000	-24.5381	386.92
229.2000	-24.9497	388.522
229.0000	-25.3785	390.126
228.8000	-25.8476	391.734
228.6000	-26.2638	393.347
228.4000	-26.6104	394.96
228.2000	-26.9628	396.579
228.0000	-27.3076	398.195
227.8000	-27.6327	399.806
227.6000	-27.9368	401.413
227.4000	-28.2895	403.013
227.2000	-28.5967	404.61
227.0000	-28.8624	406.202
226.8000	-29.0986	407.784
226.6000	-29.3981	409.366
226.4000	-29.7414	410.937
226.2000	-30.0418	412.505
226.0000	-30.363	414.063
225.8000	-30.6371	415.612
225.6000	-30.94	417.155
225.4000	-31.2497	418.69
225.2000	-31.4543	420.213
225.0000	-31.668	421.729
224.8000	-31.9004	423.238
224.6000	-32.0952	424.732
224.4000	-32.2579	426.222
224.2000	-32.4633	427.699
224.0000	-32.6692	429.173
223.8000	-32.9141	430.64
223.6000	-33.0465	432.105
223.4000	-33.2289	433.562
223.2000	-33.4119	435.016
223.0000	-33.6088	436.465
222.8000	-33.7831	437.911
222.6000	-33.8548	439.351
222.4000	-33.8587	440.791
222.2000	-33.8607	442.224
222.0000	-33.962	443.655
221.8000	-34.062	445.083
221.6000	-34.1319	446.508
221.4000	-34.2766	447.927
221.2000	-34.3818	449.345
221.0000	-34.4765	450.765
220.8000	-34.4852	452.185
220.6000	-34.4718	453.607
220.4000	-34.5756	455.019
220.2000	-34.6692	456.441
220.0000	-34.7024	457.864
219.8000	-34.62	459.289
219.6000	-34.5356	460.721
219.4000	-34.4958	462.157
219.2000	-34.4688	463.599
219.0000	-34.3861	465.048
218.8000	-34.3167	466.503
218.6000	-34.3785	467.972
218.4000	-34.4373	469.448
218.2000	-34.398	470.932
218.0000	-34.3523	472.425
217.8000	-34.2585	473.934
217.6000	-34.2222	475.458
217.4000	-34.0104	477
217.2000	-33.967	478.554
217.0000	-33.973	480.125
216.8000	-34.0161	481.714
216.6000	-34.009	483.328
216.4000	-33.9636	484.962
216.2000	-33.9834	486.622
216.0000	-34.0837	488.308
215.8000	-34.2152	490.019
215.6000	-34.2348	491.767
215.4000	-34.2247	493.545
215.2000	-34.1924	495.35
215.0000	-34.2009	497.194
214.8000	-34.3201	499.075
214.6000	-34.434	500.99
214.4000	-34.539	502.953
214.2000	-34.4849	504.959
214.0000	-34.5597	507.007
213.8000	-34.8146	509.109
213.6000	-34.9928	511.257
213.4000	-35.1616	513.457
213.2000	-35.2303	515.706
213.0000	-35.3444	518.01
212.8000	-35.35	520.368
212.6000	-35.215	522.781
212.4000	-35.1672	525.255
212.2000	-35.1737	527.785
212.0000	-35.0988	530.373
211.8000	-35.0152	533.022
211.6000	-35.0301	535.736
211.4000	-35.1048	538.514
211.2000	-35.1249	541.358
211.0000	-34.9985	544.262
210.8000	-34.8844	547.229
210.6000	-34.9559	550.261
210.4000	-34.5517	553.354
210.2000	-33.9691	556.51
210.0000	-33.964	559.721
209.8000	-33.8648	562.981
209.6000	-33.5051	566.293
209.4000	-32.943	569.658
209.2000	-32.3542	573.064
209.0000	-31.838	576.505
208.8000	-31.0821	579.98
208.6000	-30.1594	583.487
208.4000	-29.7262	587.014
208.2000	-29.1976	590.554
208.0000	-28.5612	594.103
207.8000	-27.6562	597.648
207.6000	-26.8291	601.185
207.4000	-25.9059	604.707
207.2000	-24.6377	608.2
207.0000	-23.3969	611.657
206.8000	-21.9524	615.072
206.6000	-21.0966	618.433
206.4000	-19.9219	621.737
206.2000	-18.6954	624.975
206.0000	-17.9339	628.141
205.8000	-17.098	631.227
205.6000	-15.8037	634.226
205.4000	-14.8835	637.132
205.2000	-13.7674	639.941
205.0000	-12.7118	642.645
204.8000	-11.7448	645.245
204.6000	-10.8884	647.732
204.4000	-9.96898	650.107
204.2000	-9.42419	652.363
204.0000	-8.2719	654.504
203.8000	-7.28935	656.527
203.6000	-6.64674	658.426
203.4000	-5.89326	660.21
203.2000	-4.96301	661.872
203.0000	-4.32772	663.418
202.8000	-3.72289	664.846
202.6000	-2.85546	666.162
202.4000	-2.40415	667.366
202.2000	-2.28227	668.461
202.0000	-2.10228	669.452
201.8000	-1.56441	670.344
201.6000	-0.964615	671.14
201.4000	-0.416726	671.847
201.2000	-0.111161	672.47
201.0000	-0.170677	673.012
200.8000	-0.169146	673.482
200.6000	-0.0370005	673.886
200.4000	0.0644581	674.233
200.2000	-0.415823	674.52
200.0000	-0.525126	674.762
199.8000	-0.271259	674.962
199.6000	-0.23761	675.124
199.4000	0.129388	675.254
199.2000	-0.0631947	675.352
199.0000	0.106822	675.434
198.8000	0.458596	675.496
198.6000	0.540483	675.543
198.4000	0.348438	675.575
198.2000	0.352853	675.596
198.0000	0.968261	675.612
197.8000	0.717781	675.619
197.6000	1.0445	675.622
197.4000	1.04472	675.62
197.2000	0.555538	675.615
197.0000	0.150275	675.608
196.8000	0.234261	675.598
196.6000	0.23832	675.59
196.4000	0.732836	675.583
196.2000	0.975142	675.571
196.0000	0.716999	675.559
195.8000	0.936675	675.549
195.6000	1.45612	675.54
195.4000	1.30457	675.525
195.2000	1.68087	675.515
195.0000	1.97703	675.503

##### Extended Information
[Comments]
Sample name	Mota_1kx8_d03_noTCEP
Comment
User
Division
Company	EPFL

[Detailed Information]
Creation date	20.07.2017 13:02

Data array type	Linear data array * 2
Horizontal axis	Wavelength [nm]
Vertical axis(1)	CD [mdeg]
Vertical axis(2)	HT [V]
Start	250 nm
End	195 nm
Data interval	0.2 nm
Data points	276     

[Measurement Information]
Instrument Name	CD-Spectrometer
Model Name	J-815
Serial No.	A007961168

Accessory	PFD-425S
Accessory S/N	A001061180
  Temperature	24.97 C
  Control Sonsor	Holder
  Monitor Sensor	Holder
  Cell Length	10 mm

Photometric Mode	CD, HT
Measure Range	250 - 195 nm
Data pitch	0.2 nm
Sensitivity	Standard
D.I.T.	8 sec
Bandwidth	1.00 nm
Start Mode	Immediately
Scanning Speed	50 nm/min
Baseline Correction	None
Shutter Control	Auto
PMT Voltage	Auto
Accumulations	2
Solvent	PBS 
Concentration	20 umol/L
End Temperature.	25 C
Start Temperature.	90 C
Temperature. Interval	5 C
Ramp Rate	5 C/min

