TITLE	1kx8_007
DATA TYPE	
ORIGIN	JASCO
OWNER	
DATE	17/05/03
TIME	15:35:25
SPECTROMETER/DATA SYSTEM	
LOCALE	2055
RESOLUTION	
DELTAX	-0.2
XUNITS	NANOMETERS
YUNITS	CD [mdeg]
Y2UNITS	HT [V]
FIRSTX	  250.0000
LASTX	  190.0000
NPOINTS	     301
FIRSTY	    -0.05996
MAXY	    19.99388
MINY	   -21.27233
XYDATA
250.0000	-0.0599579	302.764
249.8000	-0.0785408	303.042
249.6000	-0.0973713	303.318
249.4000	-0.111506	303.599
249.2000	-0.133594	303.878
249.0000	-0.138679	304.158
248.8000	-0.142405	304.438
248.6000	-0.145796	304.722
248.4000	-0.137474	305.007
248.2000	-0.16049	305.291
248.0000	-0.18474	305.578
247.8000	-0.193586	305.861
247.6000	-0.191759	306.147
247.4000	-0.193776	306.434
247.2000	-0.189102	306.719
247.0000	-0.202275	307.006
246.8000	-0.207217	307.293
246.6000	-0.206473	307.581
246.4000	-0.212594	307.868
246.2000	-0.241287	308.157
246.0000	-0.265045	308.448
245.8000	-0.293789	308.739
245.6000	-0.338742	309.031
245.4000	-0.369666	309.325
245.2000	-0.409055	309.617
245.0000	-0.450725	309.913
244.8000	-0.475768	310.213
244.6000	-0.514063	310.513
244.4000	-0.532075	310.816
244.2000	-0.561503	311.121
244.0000	-0.607649	311.432
243.8000	-0.661194	311.744
243.6000	-0.68358	312.061
243.4000	-0.733246	312.376
243.2000	-0.777013	312.697
243.0000	-0.812755	313.018
242.8000	-0.849759	313.342
242.6000	-0.90637	313.667
242.4000	-0.98375	313.995
242.2000	-1.04113	314.328
242.0000	-1.11324	314.66
241.8000	-1.19565	314.999
241.6000	-1.2766	315.342
241.4000	-1.33712	315.688
241.2000	-1.41142	316.039
241.0000	-1.49353	316.391
240.8000	-1.5877	316.748
240.6000	-1.69978	317.109
240.4000	-1.80831	317.474
240.2000	-1.89423	317.844
240.0000	-2.00236	318.218
239.8000	-2.12103	318.594
239.6000	-2.22839	318.98
239.4000	-2.33547	319.369
239.2000	-2.42056	319.762
239.0000	-2.54527	320.16
238.8000	-2.6526	320.566
238.6000	-2.78471	320.976
238.4000	-2.88349	321.39
238.2000	-3.0258	321.81
238.0000	-3.18154	322.234
237.8000	-3.31585	322.664
237.6000	-3.45054	323.098
237.4000	-3.59109	323.542
237.2000	-3.75044	323.99
237.0000	-3.93643	324.448
236.8000	-4.15875	324.913
236.6000	-4.34615	325.386
236.4000	-4.51814	325.864
236.2000	-4.69322	326.35
236.0000	-4.90523	326.846
235.8000	-5.11063	327.346
235.6000	-5.30799	327.859
235.4000	-5.53098	328.379
235.2000	-5.77248	328.906
235.0000	-6.01566	329.438
234.8000	-6.25583	329.98
234.6000	-6.5076	330.531
234.4000	-6.75115	331.096
234.2000	-7.02681	331.671
234.0000	-7.29924	332.254
233.8000	-7.53892	332.849
233.6000	-7.77422	333.45
233.4000	-7.99712	334.059
233.2000	-8.25231	334.679
233.0000	-8.49494	335.301
232.8000	-8.75513	335.932
232.6000	-9.06855	336.571
232.4000	-9.31652	337.219
232.2000	-9.59265	337.873
232.0000	-9.8427	338.54
231.8000	-10.0924	339.216
231.6000	-10.37	339.897
231.4000	-10.6178	340.589
231.2000	-10.8988	341.286
231.0000	-11.1652	341.99
230.8000	-11.4507	342.701
230.6000	-11.671	343.413
230.4000	-11.9228	344.129
230.2000	-12.1581	344.85
230.0000	-12.3687	345.572
229.8000	-12.6091	346.297
229.6000	-12.822	347.024
229.4000	-13.028	347.75
229.2000	-13.2169	348.477
229.0000	-13.4319	349.209
228.8000	-13.6228	349.942
228.6000	-13.8115	350.671
228.4000	-13.9572	351.402
228.2000	-14.1111	352.133
228.0000	-14.2369	352.866
227.8000	-14.4127	353.597
227.6000	-14.5158	354.326
227.4000	-14.5983	355.055
227.2000	-14.7158	355.782
227.0000	-14.8822	356.506
226.8000	-15.0542	357.23
226.6000	-15.1945	357.952
226.4000	-15.3206	358.674
226.2000	-15.4588	359.395
226.0000	-15.5676	360.119
225.8000	-15.6917	360.838
225.6000	-15.7878	361.558
225.4000	-15.888	362.274
225.2000	-15.9838	362.983
225.0000	-16.0557	363.693
224.8000	-16.1381	364.399
224.6000	-16.1884	365.105
224.4000	-16.2834	365.806
224.2000	-16.3126	366.507
224.0000	-16.3649	367.208
223.8000	-16.3841	367.911
223.6000	-16.4117	368.614
223.4000	-16.4378	369.315
223.2000	-16.4701	370.016
223.0000	-16.552	370.719
222.8000	-16.5464	371.426
222.6000	-16.5602	372.131
222.4000	-16.6055	372.837
222.2000	-16.6922	373.543
222.0000	-16.6665	374.253
221.8000	-16.6812	374.962
221.6000	-16.656	375.673
221.4000	-16.7221	376.379
221.2000	-16.7438	377.089
221.0000	-16.7428	377.798
220.8000	-16.7441	378.508
220.6000	-16.7463	379.217
220.4000	-16.6972	379.933
220.2000	-16.6261	380.649
220.0000	-16.5708	381.372
219.8000	-16.5496	382.096
219.6000	-16.5179	382.819
219.4000	-16.4513	383.548
219.2000	-16.4947	384.274
219.0000	-16.4851	385.005
218.8000	-16.4639	385.743
218.6000	-16.476	386.48
218.4000	-16.5189	387.226
218.2000	-16.5136	387.975
218.0000	-16.4948	388.73
217.8000	-16.3789	389.496
217.6000	-16.3517	390.265
217.4000	-16.3882	391.038
217.2000	-16.4361	391.814
217.0000	-16.4363	392.597
216.8000	-16.4173	393.388
216.6000	-16.4646	394.188
216.4000	-16.4725	394.997
216.2000	-16.5628	395.814
216.0000	-16.6583	396.64
215.8000	-16.5925	397.475
215.6000	-16.5122	398.32
215.4000	-16.518	399.174
215.2000	-16.5537	400.039
215.0000	-16.6087	400.92
214.8000	-16.6644	401.812
214.6000	-16.6893	402.718
214.4000	-16.7575	403.639
214.2000	-16.8453	404.576
214.0000	-16.9632	405.529
213.8000	-17.1386	406.494
213.6000	-17.2774	407.477
213.4000	-17.4386	408.473
213.2000	-17.6091	409.49
213.0000	-17.7866	410.529
212.8000	-17.9852	411.584
212.6000	-18.0337	412.664
212.4000	-18.0335	413.762
212.2000	-18.1635	414.874
212.0000	-18.3726	416.009
211.8000	-18.5165	417.163
211.6000	-18.6512	418.339
211.4000	-18.791	419.54
211.2000	-19.0294	420.759
211.0000	-19.1889	422.004
210.8000	-19.3649	423.27
210.6000	-19.547	424.561
210.4000	-19.734	425.879
210.2000	-19.8761	427.216
210.0000	-20.0616	428.579
209.8000	-20.1775	429.964
209.6000	-20.2773	431.379
209.4000	-20.3814	432.817
209.2000	-20.5527	434.281
209.0000	-20.7718	435.769
208.8000	-20.9283	437.282
208.6000	-21.0212	438.821
208.4000	-21.0606	440.386
208.2000	-21.1603	441.973
208.0000	-21.205	443.587
207.8000	-21.2665	445.222
207.6000	-21.2513	446.885
207.4000	-21.2723	448.572
207.2000	-21.2425	450.282
207.0000	-21.171	452.02
206.8000	-21.2368	453.781
206.6000	-21.1144	455.566
206.4000	-20.963	457.377
206.2000	-20.7171	459.213
206.0000	-20.5386	461.073
205.8000	-20.3238	462.961
205.6000	-20.1151	464.876
205.4000	-19.8684	466.811
205.2000	-19.4147	468.777
205.0000	-19.119	470.759
204.8000	-18.7482	472.772
204.6000	-18.3656	474.809
204.4000	-17.9792	476.868
204.2000	-17.5459	478.953
204.0000	-17.1155	481.063
203.8000	-16.5985	483.198
203.6000	-16.0714	485.36
203.4000	-15.5408	487.539
203.2000	-14.913	489.75
203.0000	-14.1572	491.98
202.8000	-13.421	494.228
202.6000	-12.6365	496.499
202.4000	-11.9521	498.787
202.2000	-11.0556	501.098
202.0000	-10.4067	503.425
201.8000	-9.8497	505.77
201.6000	-9.22658	508.135
201.4000	-8.43343	510.516
201.2000	-7.48051	512.911
201.0000	-6.83918	515.317
200.8000	-6.01217	517.734
200.6000	-5.10103	520.16
200.4000	-4.12706	522.595
200.2000	-3.19693	525.034
200.0000	-2.04665	527.477
199.8000	-1.23346	529.919
199.6000	-0.46716	532.363
199.4000	0.349761	534.8
199.2000	1.3175	537.235
199.0000	2.33725	539.664
198.8000	3.28049	542.084
198.6000	3.96771	544.496
198.4000	4.87237	546.893
198.2000	5.71502	549.266
198.0000	6.54218	551.62
197.8000	7.46601	553.946
197.6000	8.24266	556.248
197.4000	9.10164	558.523
197.2000	9.91267	560.768
197.0000	10.6134	562.982
196.8000	11.5	565.173
196.6000	12.271	567.331
196.4000	13.1457	569.468
196.2000	13.715	571.571
196.0000	14.2193	573.645
195.8000	15.0126	575.681
195.6000	15.4757	577.671
195.4000	15.9495	579.621
195.2000	16.6124	581.536
195.0000	17.2408	583.414
194.8000	17.8276	585.262
194.6000	18.1237	587.085
194.4000	18.533	588.891
194.2000	18.8231	590.68
194.0000	19.0025	592.446
193.8000	19.1151	594.183
193.6000	19.3596	595.884
193.4000	19.2623	597.542
193.2000	19.4135	599.163
193.0000	19.7096	600.754
192.8000	19.9	602.328
192.6000	19.7935	603.89
192.4000	19.7597	605.454
192.2000	19.9939	607.024
192.0000	19.9913	608.599
191.8000	19.8208	610.181
191.6000	19.6224	611.759
191.4000	19.489	613.321
191.2000	19.6737	614.872
191.0000	19.6211	616.415
190.8000	19.4479	617.966
190.6000	18.7915	619.54
190.4000	18.4082	621.15
190.2000	17.9776	622.792
190.0000	17.8802	624.469

##### Extended Information
[Comments]
Sample name	1kx8_007
Comment
User
Division
Company	EPFL

[Detailed Information]
Creation date	03.05.2017 15:35

Data array type	Linear data array * 2
Horizontal axis	Wavelength [nm]
Vertical axis(1)	CD [mdeg]
Vertical axis(2)	HT [V]
Start	250 nm
End	190 nm
Data interval	0.2 nm
Data points	301     

[Measurement Information]
Instrument Name	CD-Spectrometer
Model Name	J-815
Serial No.	A007961168

Accessory	PFD-425S
Accessory S/N	A001061180
  Temperature	20.01 C
  Control Sonsor	Holder
  Monitor Sensor	Holder
  Cell Length	10 mm

Photometric Mode	CD, HT
Measure Range	250 - 190 nm
Data pitch	0.2 nm
Sensitivity	Standard
D.I.T.	8 sec
Bandwidth	1.00 nm
Start Mode	Immediately
Scanning Speed	50 nm/min
Baseline Correction	None
Shutter Control	Auto
PMT Voltage	Auto
Accumulations	2
End Temperature.	20 C
Start Temperature.	90 C
Temperature. Interval	5 C
Ramp Rate	5 C/min

