TITLE	1kx8_003
DATA TYPE	
ORIGIN	JASCO
OWNER	
DATE	17/03/24
TIME	16:45:46
SPECTROMETER/DATA SYSTEM	
LOCALE	2055
RESOLUTION	
DELTAX	-0.2
XUNITS	NANOMETERS
YUNITS	CD [mdeg]
Y2UNITS	HT [V]
FIRSTX	  250.0000
LASTX	  195.0000
NPOINTS	     276
FIRSTY	     0.01311
MAXY	     1.04914
MINY	   -17.11302
XYDATA
250.0000	0.0131065	300.975
249.8000	0.00618324	301.252
249.6000	-0.0188858	301.528
249.4000	-0.0472309	301.806
249.2000	-0.0735394	302.084
249.0000	-0.100539	302.36
248.8000	-0.0983257	302.642
248.6000	-0.102783	302.924
248.4000	-0.120024	303.206
248.2000	-0.128468	303.484
248.0000	-0.101273	303.768
247.8000	-0.126248	304.049
247.6000	-0.145803	304.33
247.4000	-0.163958	304.617
247.2000	-0.160483	304.896
247.0000	-0.193644	305.181
246.8000	-0.207592	305.465
246.6000	-0.210562	305.752
246.4000	-0.180171	306.04
246.2000	-0.170796	306.329
246.0000	-0.204705	306.619
245.8000	-0.213311	306.91
245.6000	-0.225984	307.201
245.4000	-0.255572	307.494
245.2000	-0.305761	307.79
245.0000	-0.336661	308.088
244.8000	-0.383065	308.391
244.6000	-0.394784	308.694
244.4000	-0.434985	309
244.2000	-0.481471	309.306
244.0000	-0.487737	309.618
243.8000	-0.542116	309.932
243.6000	-0.58042	310.248
243.4000	-0.609139	310.565
243.2000	-0.669477	310.884
243.0000	-0.710865	311.207
242.8000	-0.756632	311.537
242.6000	-0.792996	311.862
242.4000	-0.802054	312.199
242.2000	-0.857351	312.533
242.0000	-0.916728	312.874
241.8000	-0.979647	313.218
241.6000	-1.04793	313.567
241.4000	-1.14238	313.923
241.2000	-1.20549	314.28
241.0000	-1.26084	314.644
240.8000	-1.30748	315.01
240.6000	-1.39877	315.385
240.4000	-1.44583	315.761
240.2000	-1.4811	316.144
240.0000	-1.53603	316.53
239.8000	-1.60304	316.919
239.6000	-1.68298	317.321
239.4000	-1.79689	317.722
239.2000	-1.88249	318.132
239.0000	-1.99434	318.547
238.8000	-2.09041	318.97
238.6000	-2.16435	319.399
238.4000	-2.23091	319.832
238.2000	-2.31624	320.274
238.0000	-2.43338	320.718
237.8000	-2.50948	321.166
237.6000	-2.57574	321.625
237.4000	-2.699	322.086
237.2000	-2.7955	322.557
237.0000	-2.90615	323.034
236.8000	-3.02846	323.518
236.6000	-3.12471	324.005
236.4000	-3.24205	324.498
236.2000	-3.33721	324.997
236.0000	-3.4194	325.506
235.8000	-3.5482	326.018
235.6000	-3.69095	326.538
235.4000	-3.83326	327.064
235.2000	-3.96725	327.599
235.0000	-4.1051	328.135
234.8000	-4.19631	328.68
234.6000	-4.327	329.228
234.4000	-4.43495	329.783
234.2000	-4.56278	330.348
234.0000	-4.70793	330.919
233.8000	-4.86403	331.495
233.6000	-5.02931	332.081
233.4000	-5.20727	332.67
233.2000	-5.36216	333.267
233.0000	-5.50777	333.861
232.8000	-5.61827	334.464
232.6000	-5.74325	335.062
232.4000	-5.88338	335.671
232.2000	-6.05989	336.288
232.0000	-6.19709	336.911
231.8000	-6.30781	337.544
231.6000	-6.42538	338.181
231.4000	-6.56202	338.826
231.2000	-6.7303	339.477
231.0000	-6.90189	340.133
230.8000	-7.05078	340.798
230.6000	-7.17821	341.464
230.4000	-7.29731	342.138
230.2000	-7.47924	342.819
230.0000	-7.62737	343.505
229.8000	-7.76585	344.195
229.6000	-7.93278	344.888
229.4000	-8.15706	345.585
229.2000	-8.34227	346.284
229.0000	-8.50471	346.986
228.8000	-8.61772	347.694
228.6000	-8.73594	348.404
228.4000	-8.87386	349.118
228.2000	-8.99168	349.836
228.0000	-9.0786	350.564
227.8000	-9.21447	351.292
227.6000	-9.3995	352.019
227.4000	-9.55127	352.753
227.2000	-9.64668	353.493
227.0000	-9.77388	354.232
226.8000	-9.85097	354.976
226.6000	-9.98566	355.727
226.4000	-10.1416	356.484
226.2000	-10.2654	357.245
226.0000	-10.3769	358.015
225.8000	-10.4722	358.787
225.6000	-10.5274	359.566
225.4000	-10.6151	360.344
225.2000	-10.7345	361.123
225.0000	-10.8679	361.906
224.8000	-10.9281	362.694
224.6000	-11.0304	363.486
224.4000	-11.0812	364.286
224.2000	-11.0945	365.089
224.0000	-11.1848	365.896
223.8000	-11.2473	366.704
223.6000	-11.2743	367.521
223.4000	-11.3053	368.342
223.2000	-11.2602	369.172
223.0000	-11.2809	370.008
222.8000	-11.3	370.854
222.6000	-11.3296	371.706
222.4000	-11.3454	372.56
222.2000	-11.379	373.426
222.0000	-11.4744	374.294
221.8000	-11.5065	375.17
221.6000	-11.6236	376.049
221.4000	-11.7179	376.938
221.2000	-11.7667	377.83
221.0000	-11.7822	378.729
220.8000	-11.7882	379.636
220.6000	-11.8342	380.542
220.4000	-11.8672	381.464
220.2000	-11.913	382.387
220.0000	-11.9782	383.317
219.8000	-11.9887	384.258
219.6000	-12.0377	385.203
219.4000	-12.0758	386.159
219.2000	-12.1376	387.122
219.0000	-12.1636	388.092
218.8000	-12.232	389.065
218.6000	-12.2347	390.047
218.4000	-12.253	391.039
218.2000	-12.2947	392.042
218.0000	-12.2981	393.052
217.8000	-12.3552	394.07
217.6000	-12.4514	395.096
217.4000	-12.4469	396.131
217.2000	-12.4738	397.18
217.0000	-12.5748	398.235
216.8000	-12.5488	399.298
216.6000	-12.6285	400.376
216.4000	-12.6734	401.457
216.2000	-12.6259	402.553
216.0000	-12.6122	403.666
215.8000	-12.6451	404.791
215.6000	-12.6425	405.934
215.4000	-12.6195	407.092
215.2000	-12.6417	408.265
215.0000	-12.6614	409.457
214.8000	-12.6607	410.668
214.6000	-12.7374	411.896
214.4000	-12.815	413.148
214.2000	-12.8175	414.419
214.0000	-12.9041	415.704
213.8000	-13.0238	417.011
213.6000	-13.1842	418.345
213.4000	-13.2128	419.705
213.2000	-13.3019	421.09
213.0000	-13.3802	422.501
212.8000	-13.495	423.941
212.6000	-13.5559	425.407
212.4000	-13.6273	426.91
212.2000	-13.8123	428.448
212.0000	-13.942	430.018
211.8000	-14.1242	431.624
211.6000	-14.3027	433.263
211.4000	-14.487	434.944
211.2000	-14.6843	436.666
211.0000	-14.7871	438.434
210.8000	-15.0046	440.249
210.6000	-15.1937	442.107
210.4000	-15.2012	444.019
210.2000	-15.4099	445.986
210.0000	-15.5364	448.009
209.8000	-15.7952	450.092
209.6000	-16.168	452.238
209.4000	-16.3798	454.445
209.2000	-16.5393	456.722
209.0000	-16.6806	459.073
208.8000	-16.7338	461.496
208.6000	-16.7975	463.998
208.4000	-16.9391	466.588
208.2000	-16.9372	469.265
208.0000	-17.113	472.044
207.8000	-17.0942	474.921
207.6000	-17.0981	477.915
207.4000	-16.9042	481.024
207.2000	-16.7123	484.265
207.0000	-16.6392	487.628
206.8000	-16.7009	491.135
206.6000	-16.7302	494.79
206.4000	-16.8445	498.595
206.2000	-16.8912	502.573
206.0000	-16.7822	506.722
205.8000	-16.8103	511.049
205.6000	-16.5935	515.57
205.4000	-16.5076	520.291
205.2000	-16.3053	525.224
205.0000	-16.5243	530.372
204.8000	-16.4421	535.744
204.6000	-16.3943	541.336
204.4000	-16.3124	547.147
204.2000	-16.3384	553.17
204.0000	-16.0039	559.395
203.8000	-16.0372	565.802
203.6000	-15.1269	572.371
203.4000	-15.1756	579.07
203.2000	-14.3057	585.873
203.0000	-13.0602	592.751
202.8000	-11.9026	599.663
202.6000	-10.9576	606.58
202.4000	-10.349	613.469
202.2000	-10.1843	620.303
202.0000	-10.3154	627.062
201.8000	-10.2549	633.723
201.6000	-9.03504	640.265
201.4000	-7.77669	646.675
201.2000	-7.53455	652.937
201.0000	-7.83843	659.043
200.8000	-8.52773	664.989
200.6000	-8.99128	670.76
200.4000	-8.4125	676.354
200.2000	-7.54697	681.754
200.0000	-6.91641	686.949
199.8000	-6.45252	691.936
199.6000	-5.88147	696.698
199.4000	-5.88896	701.229
199.2000	-5.62157	705.518
199.0000	-5.33429	709.554
198.8000	-5.15856	713.326
198.6000	-5.42498	716.827
198.4000	-4.81768	720.047
198.2000	-4.38282	722.978
198.0000	-3.9401	725.609
197.8000	-2.55423	727.948
197.6000	-1.77846	729.988
197.4000	-1.06562	731.743
197.2000	-0.625258	733.223
197.0000	-0.154488	734.45
196.8000	0.14656	735.445
196.6000	1.04914	736.234
196.4000	0.292139	736.832
196.2000	-0.901022	737.281
196.0000	-0.66814	737.611
195.8000	-0.813663	737.841
195.6000	-0.560217	738.003
195.4000	-0.680249	738.114
195.2000	-0.467696	738.19
195.0000	-1.90917	738.241

##### Extended Information
[Comments]
Sample name	1kx8_003
Comment
User
Division
Company	EPFL

[Detailed Information]
Creation date	24.03.2017 17:45

Data array type	Linear data array * 2
Horizontal axis	Wavelength [nm]
Vertical axis(1)	CD [mdeg]
Vertical axis(2)	HT [V]
Start	250 nm
End	195 nm
Data interval	0.2 nm
Data points	276     

[Measurement Information]
Instrument Name	CD-Spectrometer
Model Name	J-815
Serial No.	A007961168

Accessory	PFD-425S
Accessory S/N	A001061180
  Temperature	24.90 C
  Control Sonsor	Holder
  Monitor Sensor	Holder
  Cell Length	10 mm

Photometric Mode	CD, HT
Measure Range	250 - 195 nm
Data pitch	0.2 nm
Sensitivity	Standard
D.I.T.	8 sec
Bandwidth	1.00 nm
Start Mode	Immediately
Scanning Speed	50 nm/min
Baseline Correction	None
Shutter Control	Auto
PMT Voltage	Auto
End Temperature.	25 C
Start Temperature.	95 C
Temperature. Interval	10 C
Ramp Rate	5 C/min

