TITLE	1kx8_003
DATA TYPE	
ORIGIN	JASCO
OWNER	
DATE	17/03/24
TIME	16:45:46
SPECTROMETER/DATA SYSTEM	
LOCALE	2055
RESOLUTION	
DELTAX	-0.2
XUNITS	NANOMETERS
YUNITS	CD [mdeg]
Y2UNITS	HT [V]
FIRSTX	  250.0000
LASTX	  195.0000
NPOINTS	     276
FIRSTY	     0.06628
MAXY	     6.90120
MINY	   -16.58090
XYDATA
250.0000	0.0662804	300.894
249.8000	0.0783756	301.168
249.6000	0.0854717	301.444
249.4000	0.0766945	301.718
249.2000	0.037125	301.997
249.0000	0.0320385	302.275
248.8000	0.0315838	302.555
248.6000	0.0517998	302.832
248.4000	0.021196	303.112
248.2000	0.0199276	303.394
248.0000	-0.000239563	303.677
247.8000	-0.0369862	303.961
247.6000	-0.0508236	304.243
247.4000	-0.0327175	304.529
247.2000	-0.0392372	304.813
247.0000	-0.0722195	305.102
246.8000	-0.0975864	305.385
246.6000	-0.138206	305.672
246.4000	-0.172573	305.957
246.2000	-0.229633	306.245
246.0000	-0.248725	306.535
245.8000	-0.301742	306.824
245.6000	-0.329117	307.117
245.4000	-0.382656	307.411
245.2000	-0.451446	307.71
245.0000	-0.499965	308.009
244.8000	-0.526429	308.312
244.6000	-0.555285	308.616
244.4000	-0.57151	308.918
244.2000	-0.605573	309.227
244.0000	-0.655333	309.542
243.8000	-0.714557	309.855
243.6000	-0.735376	310.172
243.4000	-0.779229	310.493
243.2000	-0.873405	310.815
243.0000	-0.941515	311.142
242.8000	-1.0067	311.474
242.6000	-1.03795	311.806
242.4000	-1.05376	312.144
242.2000	-1.1308	312.485
242.0000	-1.19645	312.83
241.8000	-1.24823	313.179
241.6000	-1.30192	313.529
241.4000	-1.36923	313.884
241.2000	-1.46726	314.244
241.0000	-1.52933	314.61
240.8000	-1.57948	314.985
240.6000	-1.62107	315.362
240.4000	-1.68536	315.741
240.2000	-1.74686	316.124
240.0000	-1.76805	316.514
239.8000	-1.85086	316.907
239.6000	-1.93839	317.31
239.4000	-2.02312	317.716
239.2000	-2.07811	318.126
239.0000	-2.16642	318.542
238.8000	-2.24458	318.96
238.6000	-2.32112	319.384
238.4000	-2.38221	319.816
238.2000	-2.4796	320.255
238.0000	-2.55279	320.699
237.8000	-2.61626	321.152
237.6000	-2.71143	321.61
237.4000	-2.79266	322.07
237.2000	-2.87385	322.54
237.0000	-2.97943	323.017
236.8000	-3.06352	323.502
236.6000	-3.13658	323.992
236.4000	-3.23657	324.487
236.2000	-3.31529	324.99
236.0000	-3.40509	325.496
235.8000	-3.54394	326.004
235.6000	-3.65868	326.518
235.4000	-3.75156	327.042
235.2000	-3.86249	327.571
235.0000	-3.97937	328.11
234.8000	-4.10466	328.651
234.6000	-4.16219	329.199
234.4000	-4.22122	329.754
234.2000	-4.29429	330.315
234.0000	-4.43275	330.881
233.8000	-4.54094	331.454
233.6000	-4.62046	332.036
233.4000	-4.71156	332.62
233.2000	-4.82477	333.214
233.0000	-4.93288	333.808
232.8000	-5.02939	334.406
232.6000	-5.13151	335.011
232.4000	-5.25543	335.62
232.2000	-5.37085	336.239
232.0000	-5.44572	336.866
231.8000	-5.53814	337.501
231.6000	-5.60466	338.143
231.4000	-5.69977	338.792
231.2000	-5.80269	339.446
231.0000	-5.9062	340.106
230.8000	-5.93628	340.775
230.6000	-6.08108	341.445
230.4000	-6.20573	342.122
230.2000	-6.33184	342.8
230.0000	-6.4415	343.485
229.8000	-6.55958	344.171
229.6000	-6.65033	344.865
229.4000	-6.77563	345.563
229.2000	-6.87854	346.265
229.0000	-6.95947	346.979
228.8000	-7.06665	347.692
228.6000	-7.19185	348.408
228.4000	-7.31408	349.129
228.2000	-7.40429	349.85
228.0000	-7.51014	350.58
227.8000	-7.61873	351.311
227.6000	-7.7648	352.042
227.4000	-7.86545	352.775
227.2000	-7.95095	353.515
227.0000	-8.07705	354.261
226.8000	-8.14527	355.015
226.6000	-8.28744	355.771
226.4000	-8.37496	356.534
226.2000	-8.42739	357.301
226.0000	-8.52208	358.078
225.8000	-8.55032	358.857
225.6000	-8.56607	359.642
225.4000	-8.68612	360.426
225.2000	-8.82006	361.215
225.0000	-8.93375	362.004
224.8000	-8.98955	362.796
224.6000	-9.12484	363.595
224.4000	-9.21315	364.399
224.2000	-9.37456	365.199
224.0000	-9.47778	366.01
223.8000	-9.56189	366.827
223.6000	-9.62352	367.652
223.4000	-9.67682	368.482
223.2000	-9.70582	369.318
223.0000	-9.77969	370.161
222.8000	-9.8583	371.011
222.6000	-9.86528	371.863
222.4000	-9.88691	372.724
222.2000	-9.942	373.59
222.0000	-9.95801	374.459
221.8000	-9.95787	375.338
221.6000	-10.0235	376.226
221.4000	-10.0661	377.118
221.2000	-10.1651	378.018
221.0000	-10.2161	378.924
220.8000	-10.2473	379.836
220.6000	-10.2394	380.756
220.4000	-10.2027	381.678
220.2000	-10.3007	382.605
220.0000	-10.3452	383.544
219.8000	-10.3951	384.486
219.6000	-10.3896	385.44
219.4000	-10.4059	386.398
219.2000	-10.4124	387.366
219.0000	-10.463	388.337
218.8000	-10.5078	389.318
218.6000	-10.55	390.303
218.4000	-10.6069	391.299
218.2000	-10.6526	392.307
218.0000	-10.7066	393.319
217.8000	-10.643	394.341
217.6000	-10.6578	395.379
217.4000	-10.6662	396.423
217.2000	-10.6796	397.48
217.0000	-10.6835	398.547
216.8000	-10.7428	399.624
216.6000	-10.658	400.715
216.4000	-10.6508	401.82
216.2000	-10.6505	402.939
216.0000	-10.6749	404.074
215.8000	-10.8336	405.223
215.6000	-10.8749	406.387
215.4000	-10.8709	407.571
215.2000	-10.8819	408.77
215.0000	-10.9193	409.985
214.8000	-11.0555	411.224
214.6000	-11.0722	412.484
214.4000	-11.0557	413.772
214.2000	-11.0981	415.085
214.0000	-11.2342	416.421
213.8000	-11.4418	417.789
213.6000	-11.5692	419.182
213.4000	-11.6391	420.602
213.2000	-11.7627	422.049
213.0000	-11.9934	423.527
212.8000	-12.1553	425.038
212.6000	-12.3136	426.585
212.4000	-12.4835	428.172
212.2000	-12.6073	429.8
212.0000	-12.6984	431.474
211.8000	-12.7644	433.187
211.6000	-12.8169	434.947
211.4000	-12.8256	436.759
211.2000	-13.0922	438.62
211.0000	-13.3453	440.539
210.8000	-13.3806	442.52
210.6000	-13.4831	444.553
210.4000	-13.6657	446.66
210.2000	-13.8373	448.83
210.0000	-14.0873	451.073
209.8000	-14.4664	453.388
209.6000	-14.7659	455.787
209.4000	-15.0011	458.27
209.2000	-15.1787	460.84
209.0000	-15.3644	463.509
208.8000	-15.6102	466.274
208.6000	-15.7099	469.152
208.4000	-15.8441	472.153
208.2000	-15.8273	475.272
208.0000	-15.959	478.514
207.8000	-16.127	481.889
207.6000	-16.1706	485.412
207.4000	-16.1506	489.088
207.2000	-16.1239	492.927
207.0000	-15.8274	496.938
206.8000	-16.1699	501.131
206.6000	-16.518	505.521
206.4000	-16.5809	510.113
206.2000	-16.478	514.917
206.0000	-16.4191	519.935
205.8000	-16.1605	525.178
205.6000	-16.3619	530.637
205.4000	-16.4889	536.328
205.2000	-16.2337	542.245
205.0000	-15.5336	548.384
204.8000	-15.518	554.736
204.6000	-15.2549	561.281
204.4000	-14.786	567.989
204.2000	-15.0627	574.838
204.0000	-15.1486	581.791
203.8000	-14.9582	588.813
203.6000	-14.774	595.879
203.4000	-15.047	602.951
203.2000	-13.7125	610.004
203.0000	-13.1794	617.001
202.8000	-13.307	623.917
202.6000	-12.7196	630.74
202.4000	-13.0268	637.444
202.2000	-12.5773	644.023
202.0000	-11.8666	650.464
201.8000	-11.6503	656.74
201.6000	-10.9807	662.864
201.4000	-10.0844	668.811
201.2000	-9.92655	674.578
201.0000	-9.14588	680.152
200.8000	-7.89841	685.525
200.6000	-6.65796	690.68
200.4000	-7.31683	695.605
200.2000	-6.40329	700.3
200.0000	-5.91844	704.748
199.8000	-5.05341	708.932
199.6000	-4.48233	712.842
199.4000	-3.5391	716.477
199.2000	-3.3188	719.821
199.0000	-2.74811	722.875
198.8000	-1.94629	725.63
198.6000	-0.928611	728.086
198.4000	-1.31042	730.23
198.2000	-0.297052	732.083
198.0000	0.344075	733.646
197.8000	1.06998	734.945
197.6000	2.38977	736.005
197.4000	3.1462	736.848
197.2000	4.08315	737.51
197.0000	4.88279	738.015
196.8000	5.47425	738.388
196.6000	5.06222	738.662
196.4000	4.36624	738.856
196.2000	5.19048	739.005
196.0000	6.00614	739.113
195.8000	6.72979	739.191
195.6000	6.86424	739.251
195.4000	6.62468	739.296
195.2000	6.7239	739.336
195.0000	6.9012	739.365

##### Extended Information
[Comments]
Sample name	1kx8_003
Comment
User
Division
Company	EPFL

[Detailed Information]
Creation date	24.03.2017 17:45

Data array type	Linear data array * 2
Horizontal axis	Wavelength [nm]
Vertical axis(1)	CD [mdeg]
Vertical axis(2)	HT [V]
Start	250 nm
End	195 nm
Data interval	0.2 nm
Data points	276     

[Measurement Information]
Instrument Name	CD-Spectrometer
Model Name	J-815
Serial No.	A007961168

Accessory	PFD-425S
Accessory S/N	A001061180
  Temperature	24.90 C
  Control Sonsor	Holder
  Monitor Sensor	Holder
  Cell Length	10 mm

Photometric Mode	CD, HT
Measure Range	250 - 195 nm
Data pitch	0.2 nm
Sensitivity	Standard
D.I.T.	8 sec
Bandwidth	1.00 nm
Start Mode	Immediately
Scanning Speed	50 nm/min
Baseline Correction	None
Shutter Control	Auto
PMT Voltage	Auto
End Temperature.	25 C
Start Temperature.	95 C
Temperature. Interval	10 C
Ramp Rate	5 C/min

