TITLE	Mota_1kx8_d06_melting
DATA TYPE	
ORIGIN	JASCO
OWNER	
DATE	17/07/12
TIME	10:26:23
SPECTROMETER/DATA SYSTEM	
LOCALE	2055
RESOLUTION	
DELTAX	-0.2
XUNITS	NANOMETERS
YUNITS	CD [mdeg]
Y2UNITS	HT [V]
FIRSTX	  250.0000
LASTX	  195.0000
NPOINTS	     276
FIRSTY	     0.07675
MAXY	     1.21491
MINY	   -16.96139
XYDATA
250.0000	0.0767498	307.528
249.8000	0.0764191	307.803
249.6000	0.0472466	308.079
249.4000	0.0394039	308.355
249.2000	0.0149372	308.633
249.0000	0.00799999	308.912
248.8000	0.000491142	309.188
248.6000	-0.0308617	309.469
248.4000	-0.0700876	309.75
248.2000	-0.106606	310.033
248.0000	-0.139061	310.319
247.8000	-0.171255	310.604
247.6000	-0.230272	310.887
247.4000	-0.284616	311.176
247.2000	-0.316969	311.463
247.0000	-0.350139	311.753
246.8000	-0.372227	312.042
246.6000	-0.380187	312.331
246.4000	-0.412756	312.622
246.2000	-0.426796	312.919
246.0000	-0.446698	313.214
245.8000	-0.474639	313.514
245.6000	-0.522318	313.814
245.4000	-0.584713	314.116
245.2000	-0.623826	314.422
245.0000	-0.661469	314.73
244.8000	-0.705859	315.042
244.6000	-0.788846	315.357
244.4000	-0.850004	315.672
244.2000	-0.896486	315.991
244.0000	-0.907528	316.309
243.8000	-0.944303	316.637
243.6000	-0.978303	316.969
243.4000	-1.0172	317.304
243.2000	-1.06212	317.645
243.0000	-1.09196	317.988
242.8000	-1.14215	318.336
242.6000	-1.19465	318.688
242.4000	-1.26687	319.042
242.2000	-1.34533	319.401
242.0000	-1.4046	319.765
241.8000	-1.44542	320.137
241.6000	-1.50131	320.513
241.4000	-1.54802	320.896
241.2000	-1.61565	321.283
241.0000	-1.66964	321.677
240.8000	-1.69899	322.078
240.6000	-1.74782	322.481
240.4000	-1.80715	322.893
240.2000	-1.867	323.311
240.0000	-1.95551	323.735
239.8000	-2.01436	324.17
239.6000	-2.08504	324.61
239.4000	-2.17305	325.056
239.2000	-2.25703	325.51
239.0000	-2.3365	325.973
238.8000	-2.40483	326.447
238.6000	-2.48493	326.928
238.4000	-2.5659	327.419
238.2000	-2.65873	327.919
238.0000	-2.73117	328.426
237.8000	-2.78031	328.949
237.6000	-2.86184	329.482
237.4000	-2.99192	330.026
237.2000	-3.08418	330.577
237.0000	-3.17709	331.142
236.8000	-3.26773	331.717
236.6000	-3.35327	332.304
236.4000	-3.43882	332.905
236.2000	-3.54084	333.515
236.0000	-3.66565	334.139
235.8000	-3.77555	334.778
235.6000	-3.87496	335.429
235.4000	-3.98595	336.096
235.2000	-4.11122	336.777
235.0000	-4.19065	337.469
234.8000	-4.3217	338.178
234.6000	-4.43569	338.901
234.4000	-4.55545	339.639
234.2000	-4.70713	340.39
234.0000	-4.80743	341.161
233.8000	-4.95808	341.947
233.6000	-5.1007	342.754
233.4000	-5.23119	343.573
233.2000	-5.36856	344.406
233.0000	-5.50811	345.255
232.8000	-5.60237	346.114
232.6000	-5.71763	346.994
232.4000	-5.81458	347.887
232.2000	-5.94169	348.797
232.0000	-6.06143	349.724
231.8000	-6.16391	350.669
231.6000	-6.26564	351.626
231.4000	-6.37126	352.599
231.2000	-6.50368	353.585
231.0000	-6.64333	354.582
230.8000	-6.7592	355.592
230.6000	-6.89324	356.614
230.4000	-7.01642	357.644
230.2000	-7.16184	358.682
230.0000	-7.28033	359.729
229.8000	-7.43371	360.784
229.6000	-7.58618	361.847
229.4000	-7.68149	362.917
229.2000	-7.79432	363.994
229.0000	-7.94288	365.07
228.8000	-8.0858	366.155
228.6000	-8.24822	367.239
228.4000	-8.39759	368.326
228.2000	-8.49401	369.413
228.0000	-8.62902	370.501
227.8000	-8.76399	371.584
227.6000	-8.90666	372.674
227.4000	-9.07302	373.759
227.2000	-9.16279	374.841
227.0000	-9.25049	375.913
226.8000	-9.35914	376.984
226.6000	-9.44506	378.052
226.4000	-9.56077	379.117
226.2000	-9.70256	380.176
226.0000	-9.84064	381.232
225.8000	-9.97044	382.278
225.6000	-10.0773	383.316
225.4000	-10.18	384.342
225.2000	-10.2844	385.361
225.0000	-10.3703	386.369
224.8000	-10.4878	387.368
224.6000	-10.6174	388.357
224.4000	-10.7158	389.336
224.2000	-10.8379	390.307
224.0000	-10.967	391.269
223.8000	-11.0592	392.221
223.6000	-11.1695	393.171
223.4000	-11.2932	394.114
223.2000	-11.4015	395.046
223.0000	-11.4946	395.971
222.8000	-11.5782	396.888
222.6000	-11.5985	397.795
222.4000	-11.5888	398.694
222.2000	-11.6018	399.584
222.0000	-11.6042	400.47
221.8000	-11.6159	401.351
221.6000	-11.6713	402.225
221.4000	-11.6283	403.096
221.2000	-11.6123	403.959
221.0000	-11.6343	404.814
220.8000	-11.6179	405.667
220.6000	-11.6489	406.51
220.4000	-11.6997	407.356
220.2000	-11.7232	408.197
220.0000	-11.7607	409.034
219.8000	-11.7559	409.867
219.6000	-11.7429	410.698
219.4000	-11.7387	411.528
219.2000	-11.7507	412.358
219.0000	-11.7889	413.19
218.8000	-11.8193	414.019
218.6000	-11.8568	414.851
218.4000	-11.9212	415.682
218.2000	-11.9551	416.517
218.0000	-11.9599	417.356
217.8000	-11.9727	418.201
217.6000	-11.9846	419.048
217.4000	-11.9695	419.904
217.2000	-12.0174	420.768
217.0000	-12.0304	421.636
216.8000	-12.0781	422.513
216.6000	-12.1286	423.402
216.4000	-12.0998	424.302
216.2000	-12.0617	425.213
216.0000	-12.1386	426.141
215.8000	-12.2691	427.082
215.6000	-12.3199	428.045
215.4000	-12.4124	429.024
215.2000	-12.5784	430.021
215.0000	-12.7364	431.041
214.8000	-12.8677	432.08
214.6000	-12.9388	433.145
214.4000	-13.0602	434.242
214.2000	-13.1832	435.362
214.0000	-13.3452	436.515
213.8000	-13.403	437.7
213.6000	-13.4436	438.927
213.4000	-13.5975	440.187
213.2000	-13.749	441.49
213.0000	-13.9007	442.836
212.8000	-14.0798	444.225
212.6000	-14.1734	445.653
212.4000	-14.2939	447.135
212.2000	-14.4376	448.666
212.0000	-14.5471	450.258
211.8000	-14.5696	451.908
211.6000	-14.6812	453.618
211.4000	-14.8563	455.399
211.2000	-14.9897	457.245
211.0000	-15.0943	459.168
210.8000	-15.0839	461.162
210.6000	-15.0611	463.241
210.4000	-15.1326	465.403
210.2000	-15.2789	467.655
210.0000	-15.3298	469.996
209.8000	-15.4565	472.44
209.6000	-15.7499	474.988
209.4000	-15.9504	477.638
209.2000	-16.0341	480.405
209.0000	-16.1912	483.29
208.8000	-16.4266	486.294
208.6000	-16.4847	489.428
208.4000	-16.4276	492.696
208.2000	-16.399	496.106
208.0000	-16.6119	499.656
207.8000	-16.5515	503.36
207.6000	-16.536	507.222
207.4000	-16.552	511.239
207.2000	-16.63	515.417
207.0000	-16.9222	519.755
206.8000	-16.9614	524.259
206.6000	-16.8778	528.929
206.4000	-16.6341	533.757
206.2000	-16.5233	538.745
206.0000	-16.6611	543.888
205.8000	-16.5105	549.18
205.6000	-16.3962	554.603
205.4000	-16.538	560.144
205.2000	-16.3472	565.79
205.0000	-15.9449	571.51
204.8000	-15.5972	577.291
204.6000	-14.861	583.109
204.4000	-14.2642	588.934
204.2000	-13.7215	594.744
204.0000	-13.0668	600.516
203.8000	-12.5289	606.229
203.6000	-12.0013	611.859
203.4000	-11.7137	617.4
203.2000	-11.4147	622.824
203.0000	-10.71	628.127
202.8000	-10.0273	633.294
202.6000	-9.56129	638.311
202.4000	-8.79576	643.167
202.2000	-8.35219	647.858
202.0000	-8.20363	652.366
201.8000	-7.55839	656.687
201.6000	-6.89909	660.804
201.4000	-6.36612	664.714
201.2000	-5.88855	668.401
201.0000	-5.3319	671.866
200.8000	-4.76773	675.101
200.6000	-4.56026	678.102
200.4000	-3.79876	680.867
200.2000	-3.18312	683.386
200.0000	-2.69556	685.661
199.8000	-2.44894	687.697
199.6000	-2.45342	689.495
199.4000	-1.88054	691.058
199.2000	-1.97271	692.396
199.0000	-1.70054	693.518
198.8000	-0.851055	694.431
198.6000	0.133715	695.156
198.4000	0.750687	695.711
198.2000	0.781198	696.116
198.0000	1.0951	696.367
197.8000	1.21491	696.541
197.6000	1.09955	696.635
197.4000	0.911353	696.669
197.2000	0.958486	696.662
197.0000	0.691805	696.624
196.8000	0.116568	696.57
196.6000	0.41095	696.515
196.4000	0.1183	696.455
196.2000	-0.346374	696.402
196.0000	-0.522798	696.36
195.8000	-0.653881	696.333
195.6000	-0.622518	696.321
195.4000	-0.378286	696.328
195.2000	-0.152589	696.36
195.0000	-0.0295799	696.416

##### Extended Information
[Comments]
Sample name	Mota_1kx8_d06_melting
Comment	test
User
Division
Company	EPFL

[Detailed Information]
Creation date	12.07.2017 10:26

Data array type	Linear data array * 2
Horizontal axis	Wavelength [nm]
Vertical axis(1)	CD [mdeg]
Vertical axis(2)	HT [V]
Start	250 nm
End	195 nm
Data interval	0.2 nm
Data points	276     

[Measurement Information]
Instrument Name	CD-Spectrometer
Model Name	J-815
Serial No.	A007961168

Accessory	PFD-425S
Accessory S/N	A001061180
  Temperature	25.00 C
  Control Sonsor	Holder
  Monitor Sensor	Holder
  Cell Length	10 mm

Photometric Mode	CD, HT
Measure Range	250 - 195 nm
Data pitch	0.2 nm
Sensitivity	Standard
D.I.T.	8 sec
Bandwidth	1.00 nm
Start Mode	Immediately
Scanning Speed	50 nm/min
Baseline Correction	None
Shutter Control	Auto
PMT Voltage	Auto
Accumulations	2
Solvent	phosphate
Concentration	20 umol/L
End Temperature.	25 C
Start Temperature.	90 C
Temperature. Interval	5 C
Ramp Rate	5 C/min

