TITLE	Mota_1kx8_d07_notcep
DATA TYPE	
ORIGIN	JASCO
OWNER	
DATE	17/08/08
TIME	15:39:37
SPECTROMETER/DATA SYSTEM	
LOCALE	2055
RESOLUTION	
DELTAX	-0.2
XUNITS	NANOMETERS
YUNITS	CD [mdeg]
Y2UNITS	HT [V]
FIRSTX	  250.0000
LASTX	  195.0000
NPOINTS	     276
FIRSTY	     0.11886
MAXY	     6.02236
MINY	   -25.80912
XYDATA
250.0000	0.118864	306.925
249.8000	0.111686	307.197
249.6000	0.102099	307.47
249.4000	0.0825523	307.746
249.2000	0.0800461	308.02
249.0000	0.0500828	308.298
248.8000	0.0198589	308.576
248.6000	0.01388	308.853
248.4000	0.00137939	309.131
248.2000	-0.0226105	309.406
248.0000	-0.0129761	309.688
247.8000	-0.0158913	309.966
247.6000	-0.0284653	310.244
247.4000	-0.0638811	310.526
247.2000	-0.0901129	310.806
247.0000	-0.129722	311.093
246.8000	-0.158969	311.376
246.6000	-0.188969	311.662
246.4000	-0.203187	311.944
246.2000	-0.226936	312.233
246.0000	-0.264343	312.521
245.8000	-0.295638	312.812
245.6000	-0.329599	313.102
245.4000	-0.360409	313.395
245.2000	-0.421734	313.689
245.0000	-0.462057	313.986
244.8000	-0.494603	314.287
244.6000	-0.532829	314.588
244.4000	-0.582899	314.892
244.2000	-0.638613	315.199
244.0000	-0.686257	315.508
243.8000	-0.733267	315.819
243.6000	-0.80763	316.135
243.4000	-0.879238	316.455
243.2000	-0.953948	316.779
243.0000	-1.02674	317.106
242.8000	-1.10475	317.439
242.6000	-1.17598	317.776
242.4000	-1.26773	318.115
242.2000	-1.35442	318.459
242.0000	-1.4682	318.804
241.8000	-1.53796	319.16
241.6000	-1.63794	319.515
241.4000	-1.76764	319.879
241.2000	-1.88458	320.245
241.0000	-1.98143	320.62
240.8000	-2.08776	321
240.6000	-2.19819	321.384
240.4000	-2.33968	321.771
240.2000	-2.47998	322.164
240.0000	-2.62692	322.565
239.8000	-2.758	322.972
239.6000	-2.90083	323.386
239.4000	-3.05259	323.805
239.2000	-3.20185	324.231
239.0000	-3.34153	324.666
238.8000	-3.51572	325.108
238.6000	-3.68711	325.556
238.4000	-3.82976	326.012
238.2000	-4.00815	326.475
238.0000	-4.17568	326.949
237.8000	-4.3672	327.428
237.6000	-4.54729	327.917
237.4000	-4.72015	328.417
237.2000	-4.91316	328.922
237.0000	-5.11636	329.436
236.8000	-5.33245	329.959
236.6000	-5.54208	330.49
236.4000	-5.74223	331.033
236.2000	-5.93767	331.584
236.0000	-6.14493	332.15
235.8000	-6.34061	332.72
235.6000	-6.53847	333.306
235.4000	-6.72526	333.9
235.2000	-6.9605	334.504
235.0000	-7.17157	335.123
234.8000	-7.40952	335.748
234.6000	-7.62138	336.389
234.4000	-7.87071	337.039
234.2000	-8.10481	337.701
234.0000	-8.34863	338.378
233.8000	-8.56497	339.069
233.6000	-8.7986	339.769
233.4000	-9.05254	340.482
233.2000	-9.29791	341.206
233.0000	-9.53951	341.933
232.8000	-9.81204	342.673
232.6000	-10.093	343.422
232.4000	-10.3579	344.181
232.2000	-10.6178	344.954
232.0000	-10.8748	345.733
231.8000	-11.1484	346.528
231.6000	-11.4216	347.327
231.4000	-11.6861	348.136
231.2000	-11.9432	348.953
231.0000	-12.2092	349.777
230.8000	-12.4863	350.605
230.6000	-12.7397	351.44
230.4000	-12.9772	352.283
230.2000	-13.2324	353.126
230.0000	-13.4907	353.978
229.8000	-13.7482	354.828
229.6000	-14.0333	355.677
229.4000	-14.3258	356.527
229.2000	-14.6293	357.38
229.0000	-14.9053	358.236
228.8000	-15.1673	359.088
228.6000	-15.4408	359.942
228.4000	-15.7183	360.793
228.2000	-15.9661	361.646
228.0000	-16.2073	362.498
227.8000	-16.5253	363.344
227.6000	-16.7746	364.188
227.4000	-17.0102	365.031
227.2000	-17.2684	365.867
227.0000	-17.5261	366.702
226.8000	-17.7162	367.531
226.6000	-17.963	368.362
226.4000	-18.1968	369.19
226.2000	-18.3974	370.016
226.0000	-18.6175	370.841
225.8000	-18.8173	371.661
225.6000	-19.009	372.476
225.4000	-19.2183	373.286
225.2000	-19.3852	374.089
225.0000	-19.576	374.891
224.8000	-19.7823	375.689
224.6000	-19.9193	376.485
224.4000	-20.0646	377.278
224.2000	-20.2153	378.066
224.0000	-20.3573	378.857
223.8000	-20.4955	379.642
223.6000	-20.6806	380.432
223.4000	-20.8085	381.218
223.2000	-20.9707	382.006
223.0000	-21.1042	382.801
222.8000	-21.1734	383.594
222.6000	-21.2194	384.386
222.4000	-21.2986	385.175
222.2000	-21.3964	385.967
222.0000	-21.4923	386.759
221.8000	-21.4662	387.556
221.6000	-21.4891	388.354
221.4000	-21.5783	389.153
221.2000	-21.6157	389.954
221.0000	-21.5773	390.759
220.8000	-21.6254	391.565
220.6000	-21.6413	392.373
220.4000	-21.6355	393.182
220.2000	-21.6974	393.996
220.0000	-21.7163	394.815
219.8000	-21.6848	395.635
219.6000	-21.6673	396.465
219.4000	-21.6771	397.297
219.2000	-21.7089	398.132
219.0000	-21.7377	398.973
218.8000	-21.7556	399.82
218.6000	-21.7727	400.671
218.4000	-21.7389	401.53
218.2000	-21.7111	402.4
218.0000	-21.7243	403.272
217.8000	-21.736	404.16
217.6000	-21.74	405.051
217.4000	-21.7383	405.949
217.2000	-21.7175	406.858
217.0000	-21.6282	407.777
216.8000	-21.5283	408.708
216.6000	-21.4765	409.645
216.4000	-21.3459	410.593
216.2000	-21.2864	411.551
216.0000	-21.2999	412.524
215.8000	-21.3308	413.514
215.6000	-21.3407	414.518
215.4000	-21.3631	415.539
215.2000	-21.4334	416.572
215.0000	-21.477	417.623
214.8000	-21.5356	418.693
214.6000	-21.5984	419.781
214.4000	-21.713	420.885
214.2000	-21.7724	422.014
214.0000	-21.8591	423.162
213.8000	-21.909	424.338
213.6000	-21.9259	425.537
213.4000	-21.9884	426.762
213.2000	-22.1258	428.009
213.0000	-22.2398	429.282
212.8000	-22.3733	430.581
212.6000	-22.5213	431.905
212.4000	-22.6738	433.262
212.2000	-22.8615	434.645
212.0000	-22.9958	436.07
211.8000	-23.2263	437.517
211.6000	-23.4204	439.003
211.4000	-23.5581	440.52
211.2000	-23.6855	442.073
211.0000	-23.8649	443.667
210.8000	-23.974	445.293
210.6000	-24.108	446.962
210.4000	-24.2628	448.668
210.2000	-24.595	450.413
210.0000	-24.8697	452.203
209.8000	-25.0608	454.04
209.6000	-25.2136	455.922
209.4000	-25.2403	457.847
209.2000	-25.3258	459.818
209.0000	-25.535	461.831
208.8000	-25.646	463.894
208.6000	-25.6336	466.006
208.4000	-25.6639	468.173
208.2000	-25.8091	470.389
208.0000	-25.7739	472.661
207.8000	-25.5909	474.993
207.6000	-25.5592	477.383
207.4000	-25.6464	479.836
207.2000	-25.6997	482.348
207.0000	-25.7444	484.924
206.8000	-25.783	487.568
206.6000	-25.6535	490.284
206.4000	-25.5099	493.069
206.2000	-25.2955	495.935
206.0000	-24.8842	498.881
205.8000	-24.58	501.909
205.6000	-24.209	505.025
205.4000	-23.8639	508.229
205.2000	-23.232	511.533
205.0000	-22.9879	514.935
204.8000	-22.6016	518.441
204.6000	-22.2452	522.055
204.4000	-21.7752	525.781
204.2000	-21.4016	529.628
204.0000	-21.088	533.597
203.8000	-20.2031	537.689
203.6000	-19.3795	541.918
203.4000	-18.3133	546.278
203.2000	-17.4971	550.775
203.0000	-16.6373	555.407
202.8000	-16.0025	560.179
202.6000	-15.3566	565.085
202.4000	-14.6249	570.122
202.2000	-14.0142	575.288
202.0000	-12.7784	580.575
201.8000	-11.7011	585.961
201.6000	-10.484	591.443
201.4000	-9.52071	596.999
201.2000	-8.86229	602.609
201.0000	-8.04126	608.256
200.8000	-6.88568	613.924
200.6000	-5.4922	619.586
200.4000	-4.05148	625.227
200.2000	-2.74788	630.828
200.0000	-2.20506	636.366
199.8000	-1.22827	641.829
199.6000	-0.187745	647.2
199.4000	0.273355	652.467
199.2000	0.76689	657.618
199.0000	0.980494	662.641
198.8000	1.28938	667.531
198.6000	1.44849	672.273
198.4000	1.92946	676.863
198.2000	2.9726	681.3
198.0000	3.50012	685.566
197.8000	4.59157	689.658
197.6000	4.81027	693.565
197.4000	4.88836	697.285
197.2000	4.13499	700.805
197.0000	4.12004	704.127
196.8000	4.0777	707.246
196.6000	4.45129	710.147
196.4000	4.53064	712.837
196.2000	4.58772	715.305
196.0000	5.02936	717.557
195.8000	4.76368	719.592
195.6000	5.7043	721.413
195.4000	5.86015	723.025
195.2000	6.02236	724.435
195.0000	5.71314	725.654

##### Extended Information
[Comments]
Sample name	Mota_1kx8_d07_notcep
Comment
User
Division
Company	EPFL

[Detailed Information]
Creation date	08.08.2017 15:39

Data array type	Linear data array * 2
Horizontal axis	Wavelength [nm]
Vertical axis(1)	CD [mdeg]
Vertical axis(2)	HT [V]
Start	250 nm
End	195 nm
Data interval	0.2 nm
Data points	276     

[Measurement Information]
Instrument Name	CD-Spectrometer
Model Name	J-815
Serial No.	A007961168

Accessory	PFD-425S
Accessory S/N	A001061180
  Temperature	25.07 C
  Control Sonsor	Holder
  Monitor Sensor	Holder
  Cell Length	10 mm

Photometric Mode	CD, HT
Measure Range	250 - 195 nm
Data pitch	0.2 nm
Sensitivity	Standard
D.I.T.	8 sec
Bandwidth	1.00 nm
Start Mode	Immediately
Scanning Speed	50 nm/min
Baseline Correction	None
Shutter Control	Auto
PMT Voltage	Auto
Accumulations	2
Solvent	PBS
Concentration	20 umol/L
End Temperature.	25 C
Start Temperature.	90 C
Temperature. Interval	5 C
Ramp Rate	5 C/min

