TITLE	Mota_1kx8_d07_notcep
DATA TYPE	
ORIGIN	JASCO
OWNER	
DATE	17/08/08
TIME	15:39:37
SPECTROMETER/DATA SYSTEM	
LOCALE	2055
RESOLUTION	
DELTAX	-0.2
XUNITS	NANOMETERS
YUNITS	CD [mdeg]
Y2UNITS	HT [V]
FIRSTX	  250.0000
LASTX	  195.0000
NPOINTS	     276
FIRSTY	     0.17751
MAXY	     4.30289
MINY	   -26.19803
XYDATA
250.0000	0.177506	306.742
249.8000	0.192087	307.014
249.6000	0.15514	307.285
249.4000	0.14723	307.561
249.2000	0.124727	307.839
249.0000	0.137544	308.112
248.8000	0.140925	308.392
248.6000	0.137971	308.666
248.4000	0.119077	308.943
248.2000	0.0865322	309.221
248.0000	0.0833664	309.501
247.8000	0.0645063	309.778
247.6000	0.03242	310.059
247.4000	0.0345955	310.339
247.2000	0.0585815	310.621
247.0000	0.0494778	310.903
246.8000	0.0407331	311.185
246.6000	0.00652599	311.468
246.4000	-0.0201038	311.751
246.2000	-0.0734871	312.04
246.0000	-0.12189	312.329
245.8000	-0.172605	312.619
245.6000	-0.228013	312.908
245.4000	-0.273387	313.205
245.2000	-0.304086	313.5
245.0000	-0.35813	313.798
244.8000	-0.404197	314.097
244.6000	-0.436782	314.398
244.4000	-0.492786	314.7
244.2000	-0.551412	315.008
244.0000	-0.597805	315.319
243.8000	-0.657849	315.633
243.6000	-0.73623	315.946
243.4000	-0.811177	316.268
243.2000	-0.902541	316.592
243.0000	-0.967556	316.918
242.8000	-1.01032	317.25
242.6000	-1.09297	317.581
242.4000	-1.19712	317.919
242.2000	-1.28579	318.257
242.0000	-1.3731	318.605
241.8000	-1.47527	318.955
241.6000	-1.56655	319.31
241.4000	-1.66552	319.673
241.2000	-1.76676	320.039
241.0000	-1.86264	320.415
240.8000	-1.96346	320.791
240.6000	-2.08409	321.174
240.4000	-2.21425	321.564
240.2000	-2.34955	321.955
240.0000	-2.48182	322.356
239.8000	-2.61627	322.761
239.6000	-2.73282	323.169
239.4000	-2.88588	323.588
239.2000	-2.97922	324.011
239.0000	-3.12925	324.444
238.8000	-3.26773	324.884
238.6000	-3.41027	325.332
238.4000	-3.5386	325.787
238.2000	-3.68882	326.25
238.0000	-3.87545	326.724
237.8000	-4.02765	327.204
237.6000	-4.19759	327.693
237.4000	-4.36485	328.191
237.2000	-4.55896	328.697
237.0000	-4.76308	329.216
236.8000	-4.99201	329.741
236.6000	-5.19341	330.278
236.4000	-5.39833	330.822
236.2000	-5.6471	331.377
236.0000	-5.86143	331.945
235.8000	-6.05504	332.52
235.6000	-6.26057	333.112
235.4000	-6.50872	333.711
235.2000	-6.73254	334.323
235.0000	-6.95916	334.946
234.8000	-7.22989	335.575
234.6000	-7.47149	336.22
234.4000	-7.7443	336.878
234.2000	-7.98503	337.547
234.0000	-8.25861	338.232
233.8000	-8.54928	338.929
233.6000	-8.81555	339.639
233.4000	-9.1013	340.361
233.2000	-9.38225	341.098
233.0000	-9.68837	341.84
232.8000	-9.98035	342.591
232.6000	-10.2921	343.353
232.4000	-10.5999	344.122
232.2000	-10.8718	344.906
232.0000	-11.1404	345.702
231.8000	-11.4337	346.51
231.6000	-11.7404	347.324
231.4000	-12.0232	348.147
231.2000	-12.3348	348.978
231.0000	-12.6276	349.814
230.8000	-12.9162	350.658
230.6000	-13.2517	351.507
230.4000	-13.5437	352.361
230.2000	-13.7843	353.22
230.0000	-14.0455	354.081
229.8000	-14.3299	354.945
229.6000	-14.5838	355.81
229.4000	-14.9056	356.677
229.2000	-15.2557	357.542
229.0000	-15.5155	358.41
228.8000	-15.7865	359.278
228.6000	-16.0472	360.145
228.4000	-16.3033	361.009
228.2000	-16.5239	361.873
228.0000	-16.7786	362.735
227.8000	-17.0194	363.593
227.6000	-17.3226	364.452
227.4000	-17.6049	365.298
227.2000	-17.8281	366.147
227.0000	-18.0804	366.988
226.8000	-18.2851	367.823
226.6000	-18.4927	368.66
226.4000	-18.6973	369.489
226.2000	-18.896	370.319
226.0000	-19.1268	371.145
225.8000	-19.3062	371.97
225.6000	-19.5013	372.788
225.4000	-19.7538	373.601
225.2000	-19.9457	374.406
225.0000	-20.0753	375.207
224.8000	-20.2398	376.003
224.6000	-20.3895	376.798
224.4000	-20.4957	377.594
224.2000	-20.6413	378.384
224.0000	-20.7521	379.173
223.8000	-20.8256	379.958
223.6000	-20.9619	380.744
223.4000	-21.1006	381.528
223.2000	-21.2785	382.315
223.0000	-21.4492	383.102
222.8000	-21.5694	383.891
222.6000	-21.636	384.679
222.4000	-21.7254	385.463
222.2000	-21.7951	386.252
222.0000	-21.9261	387.039
221.8000	-21.974	387.834
221.6000	-22.0686	388.627
221.4000	-22.1703	389.427
221.2000	-22.252	390.22
221.0000	-22.2623	391.018
220.8000	-22.2457	391.822
220.6000	-22.2336	392.627
220.4000	-22.3071	393.438
220.2000	-22.3977	394.246
220.0000	-22.417	395.058
219.8000	-22.3976	395.878
219.6000	-22.394	396.694
219.4000	-22.3664	397.523
219.2000	-22.346	398.354
219.0000	-22.3038	399.19
218.8000	-22.3484	400.031
218.6000	-22.3349	400.882
218.4000	-22.3613	401.737
218.2000	-22.3098	402.601
218.0000	-22.2611	403.47
217.8000	-22.2422	404.344
217.6000	-22.2238	405.231
217.4000	-22.1556	406.126
217.2000	-22.1278	407.028
217.0000	-22.1307	407.939
216.8000	-22.1908	408.863
216.6000	-22.1756	409.794
216.4000	-22.0946	410.74
216.2000	-22.0597	411.692
216.0000	-22.0059	412.66
215.8000	-21.9733	413.643
215.6000	-22.0207	414.638
215.4000	-21.9893	415.652
215.2000	-22.028	416.676
215.0000	-22.126	417.719
214.8000	-22.1897	418.783
214.6000	-22.2232	419.863
214.4000	-22.2813	420.961
214.2000	-22.455	422.079
214.0000	-22.6447	423.214
213.8000	-22.6199	424.378
213.6000	-22.6314	425.563
213.4000	-22.6846	426.774
213.2000	-22.8413	428.007
213.0000	-22.9335	429.268
212.8000	-22.9754	430.554
212.6000	-23.1234	431.87
212.4000	-23.2365	433.21
212.2000	-23.355	434.586
212.0000	-23.4839	435.993
211.8000	-23.6555	437.424
211.6000	-23.9165	438.89
211.4000	-23.9974	440.392
211.2000	-24.0862	441.931
211.0000	-24.2884	443.5
210.8000	-24.5239	445.107
210.6000	-24.7562	446.754
210.4000	-24.9806	448.434
210.2000	-25.0343	450.159
210.0000	-25.1088	451.919
209.8000	-25.2268	453.721
209.6000	-25.4085	455.563
209.4000	-25.6441	457.449
209.2000	-25.8912	459.379
209.0000	-25.9764	461.354
208.8000	-26.0877	463.373
208.6000	-26.198	465.441
208.4000	-26.1598	467.556
208.2000	-26.1676	469.719
208.0000	-26.1332	471.934
207.8000	-26.1319	474.201
207.6000	-26.047	476.528
207.4000	-26.0342	478.907
207.2000	-26.0834	481.339
207.0000	-25.9628	483.835
206.8000	-25.9135	486.385
206.6000	-25.8438	489.005
206.4000	-25.7239	491.69
206.2000	-25.4824	494.443
206.0000	-25.1933	497.276
205.8000	-24.8592	500.177
205.6000	-24.693	503.147
205.4000	-24.424	506.198
205.2000	-23.9605	509.335
205.0000	-23.4472	512.565
204.8000	-23.0711	515.887
204.6000	-22.6013	519.302
204.4000	-22.1092	522.817
204.2000	-21.4475	526.436
204.0000	-20.6302	530.163
203.8000	-19.9344	534.002
203.6000	-19.2169	537.958
203.4000	-18.4547	542.039
203.2000	-17.7492	546.242
203.0000	-17.1645	550.573
202.8000	-16.4682	555.036
202.6000	-15.545	559.625
202.4000	-14.5824	564.345
202.2000	-13.8485	569.19
202.0000	-12.9602	574.157
201.8000	-11.8251	579.244
201.6000	-11.066	584.431
201.4000	-10.2638	589.722
201.2000	-9.6408	595.09
201.0000	-8.82238	600.529
200.8000	-8.05011	606.022
200.6000	-7.11304	611.547
200.4000	-5.85203	617.089
200.2000	-5.18648	622.624
200.0000	-4.41402	628.135
199.8000	-3.92662	633.603
199.6000	-3.07345	639.012
199.4000	-2.97608	644.34
199.2000	-2.62021	649.581
199.0000	-1.88005	654.724
198.8000	-1.42585	659.75
198.6000	-1.27879	664.647
198.4000	-0.700022	669.407
198.2000	0.0732193	674.025
198.0000	0.321093	678.487
197.8000	0.422713	682.785
197.6000	0.920871	686.918
197.4000	1.53651	690.877
197.2000	2.22079	694.656
197.0000	2.81757	698.247
196.8000	3.5479	701.647
196.6000	3.73439	704.843
196.4000	4.18449	707.837
196.2000	4.30289	710.622
196.0000	3.97328	713.198
195.8000	3.15583	715.555
195.6000	3.00887	717.705
195.4000	2.60361	719.648
195.2000	2.29083	721.38
195.0000	2.49561	722.913

##### Extended Information
[Comments]
Sample name	Mota_1kx8_d07_notcep
Comment
User
Division
Company	EPFL

[Detailed Information]
Creation date	08.08.2017 15:39

Data array type	Linear data array * 2
Horizontal axis	Wavelength [nm]
Vertical axis(1)	CD [mdeg]
Vertical axis(2)	HT [V]
Start	250 nm
End	195 nm
Data interval	0.2 nm
Data points	276     

[Measurement Information]
Instrument Name	CD-Spectrometer
Model Name	J-815
Serial No.	A007961168

Accessory	PFD-425S
Accessory S/N	A001061180
  Temperature	25.07 C
  Control Sonsor	Holder
  Monitor Sensor	Holder
  Cell Length	10 mm

Photometric Mode	CD, HT
Measure Range	250 - 195 nm
Data pitch	0.2 nm
Sensitivity	Standard
D.I.T.	8 sec
Bandwidth	1.00 nm
Start Mode	Immediately
Scanning Speed	50 nm/min
Baseline Correction	None
Shutter Control	Auto
PMT Voltage	Auto
Accumulations	2
Solvent	PBS
Concentration	20 umol/L
End Temperature.	25 C
Start Temperature.	90 C
Temperature. Interval	5 C
Ramp Rate	5 C/min

