TITLE	Mota_1kx8_d07_notcep
DATA TYPE	
ORIGIN	JASCO
OWNER	
DATE	17/08/08
TIME	15:39:37
SPECTROMETER/DATA SYSTEM	
LOCALE	2055
RESOLUTION	
DELTAX	-0.2
XUNITS	NANOMETERS
YUNITS	CD [mdeg]
Y2UNITS	HT [V]
FIRSTX	  250.0000
LASTX	  195.0000
NPOINTS	     276
FIRSTY	     0.10142
MAXY	     2.26302
MINY	   -25.15647
XYDATA
250.0000	0.101419	306.538
249.8000	0.0778202	306.815
249.6000	0.0508837	307.092
249.4000	0.0219437	307.37
249.2000	0.0126587	307.648
249.0000	0.00565472	307.928
248.8000	-0.0157347	308.206
248.6000	-0.0392794	308.485
248.4000	-0.0761162	308.766
248.2000	-0.122179	309.048
248.0000	-0.138629	309.333
247.8000	-0.139132	309.614
247.6000	-0.154629	309.897
247.4000	-0.183535	310.182
247.2000	-0.217532	310.467
247.0000	-0.252396	310.751
246.8000	-0.299475	311.032
246.6000	-0.337412	311.317
246.4000	-0.359206	311.602
246.2000	-0.393968	311.893
246.0000	-0.430569	312.183
245.8000	-0.490495	312.475
245.6000	-0.553369	312.77
245.4000	-0.584035	313.065
245.2000	-0.653176	313.367
245.0000	-0.717894	313.67
244.8000	-0.751982	313.974
244.6000	-0.790881	314.28
244.4000	-0.866506	314.588
244.2000	-0.931054	314.898
244.0000	-0.965496	315.211
243.8000	-1.00503	315.525
243.6000	-1.07112	315.846
243.4000	-1.12368	316.173
243.2000	-1.20314	316.501
243.0000	-1.2622	316.833
242.8000	-1.32958	317.169
242.6000	-1.39869	317.509
242.4000	-1.48699	317.852
242.2000	-1.57471	318.2
242.0000	-1.63947	318.554
241.8000	-1.73879	318.911
241.6000	-1.80374	319.273
241.4000	-1.88122	319.64
241.2000	-1.98997	320.012
241.0000	-2.07887	320.392
240.8000	-2.20052	320.777
240.6000	-2.31934	321.167
240.4000	-2.42592	321.564
240.2000	-2.54755	321.965
240.0000	-2.64147	322.375
239.8000	-2.7909	322.786
239.6000	-2.91941	323.206
239.4000	-3.06959	323.634
239.2000	-3.22527	324.068
239.0000	-3.35471	324.509
238.8000	-3.47325	324.959
238.6000	-3.60745	325.411
238.4000	-3.73267	325.873
238.2000	-3.89263	326.343
238.0000	-4.06142	326.822
237.8000	-4.19995	327.309
237.6000	-4.33036	327.805
237.4000	-4.49799	328.314
237.2000	-4.69924	328.827
237.0000	-4.85674	329.353
236.8000	-5.05068	329.882
236.6000	-5.23316	330.421
236.4000	-5.42136	330.971
236.2000	-5.63226	331.528
236.0000	-5.84556	332.096
235.8000	-6.05271	332.675
235.6000	-6.2503	333.265
235.4000	-6.46334	333.862
235.2000	-6.67208	334.47
235.0000	-6.90272	335.088
234.8000	-7.15111	335.713
234.6000	-7.36906	336.352
234.4000	-7.61721	337.001
234.2000	-7.86269	337.661
234.0000	-8.08739	338.332
233.8000	-8.33535	339.015
233.6000	-8.57055	339.706
233.4000	-8.8089	340.41
233.2000	-9.06175	341.125
233.0000	-9.29505	341.845
232.8000	-9.53388	342.573
232.6000	-9.72999	343.305
232.4000	-9.9534	344.049
232.2000	-10.2197	344.805
232.0000	-10.4803	345.568
231.8000	-10.6875	346.346
231.6000	-10.9387	347.128
231.4000	-11.1683	347.917
231.2000	-11.3925	348.717
231.0000	-11.6608	349.521
230.8000	-11.9219	350.329
230.6000	-12.1804	351.146
230.4000	-12.4357	351.967
230.2000	-12.665	352.792
230.0000	-12.8848	353.624
229.8000	-13.1107	354.455
229.6000	-13.3586	355.29
229.4000	-13.6301	356.126
229.2000	-13.8492	356.962
229.0000	-14.077	357.802
228.8000	-14.3175	358.642
228.6000	-14.576	359.488
228.4000	-14.8163	360.333
228.2000	-15.0059	361.179
228.0000	-15.2375	362.026
227.8000	-15.4116	362.87
227.6000	-15.5907	363.715
227.4000	-15.7874	364.555
227.2000	-15.9681	365.393
227.0000	-16.1785	366.232
226.8000	-16.3809	367.064
226.6000	-16.5532	367.897
226.4000	-16.7329	368.732
226.2000	-16.8566	369.564
226.0000	-16.9816	370.402
225.8000	-17.1515	371.23
225.6000	-17.2988	372.061
225.4000	-17.4204	372.886
225.2000	-17.5799	373.709
225.0000	-17.6947	374.531
224.8000	-17.8039	375.35
224.6000	-17.959	376.167
224.4000	-18.1045	376.98
224.2000	-18.18	377.796
224.0000	-18.2732	378.608
223.8000	-18.3303	379.42
223.6000	-18.4663	380.232
223.4000	-18.5529	381.045
223.2000	-18.6506	381.86
223.0000	-18.667	382.676
222.8000	-18.6511	383.493
222.6000	-18.6972	384.308
222.4000	-18.7636	385.124
222.2000	-18.7986	385.944
222.0000	-18.8025	386.761
221.8000	-18.8042	387.581
221.6000	-18.8491	388.402
221.4000	-18.8952	389.223
221.2000	-18.9138	390.05
221.0000	-18.9207	390.873
220.8000	-18.9237	391.702
220.6000	-18.9237	392.534
220.4000	-18.9334	393.371
220.2000	-18.9087	394.217
220.0000	-18.9218	395.065
219.8000	-18.8965	395.913
219.6000	-18.9254	396.767
219.4000	-18.936	397.621
219.2000	-18.9481	398.487
219.0000	-18.9802	399.356
218.8000	-18.9655	400.23
218.6000	-18.9356	401.111
218.4000	-18.9132	401.997
218.2000	-18.867	402.893
218.0000	-18.8629	403.797
217.8000	-18.8516	404.709
217.6000	-18.8436	405.633
217.4000	-18.8362	406.565
217.2000	-18.9124	407.506
217.0000	-18.9096	408.458
216.8000	-18.9333	409.423
216.6000	-18.9684	410.399
216.4000	-19.0273	411.387
216.2000	-19.0631	412.387
216.0000	-19.0638	413.406
215.8000	-19.037	414.443
215.6000	-19.0604	415.491
215.4000	-19.1395	416.561
215.2000	-19.1552	417.644
215.0000	-19.2081	418.753
214.8000	-19.2539	419.88
214.6000	-19.3939	421.03
214.4000	-19.5257	422.206
214.2000	-19.6914	423.402
214.0000	-19.8036	424.626
213.8000	-19.961	425.879
213.6000	-20.1169	427.157
213.4000	-20.1352	428.463
213.2000	-20.2539	429.803
213.0000	-20.3238	431.174
212.8000	-20.4156	432.579
212.6000	-20.6336	434.018
212.4000	-20.7955	435.495
212.2000	-21.0246	437.007
212.0000	-21.2989	438.563
211.8000	-21.5731	440.158
211.6000	-21.9544	441.794
211.4000	-22.2702	443.477
211.2000	-22.4578	445.205
211.0000	-22.6542	446.984
210.8000	-22.8919	448.813
210.6000	-23.0587	450.69
210.4000	-23.2269	452.627
210.2000	-23.458	454.617
210.0000	-23.4921	456.666
209.8000	-23.6424	458.783
209.6000	-23.7702	460.963
209.4000	-23.9248	463.205
209.2000	-24.1858	465.516
209.0000	-24.4404	467.9
208.8000	-24.6532	470.356
208.6000	-24.8285	472.895
208.4000	-25.051	475.515
208.2000	-25.1565	478.224
208.0000	-25.0456	481.017
207.8000	-24.8114	483.907
207.6000	-24.7158	486.898
207.4000	-24.747	489.994
207.2000	-24.6304	493.197
207.0000	-24.5228	496.504
206.8000	-24.3923	499.935
206.6000	-24.3506	503.489
206.4000	-24.1673	507.171
206.2000	-24.1365	510.984
206.0000	-23.9797	514.937
205.8000	-23.7106	519.033
205.6000	-23.5134	523.281
205.4000	-23.1699	527.682
205.2000	-22.8982	532.247
205.0000	-22.1808	536.973
204.8000	-21.2628	541.87
204.6000	-20.6952	546.935
204.4000	-20.067	552.164
204.2000	-19.47	557.552
204.0000	-19.3051	563.096
203.8000	-18.4049	568.786
203.6000	-17.6047	574.606
203.4000	-16.8918	580.531
203.2000	-16.0627	586.546
203.0000	-15.0621	592.634
202.8000	-14.6775	598.766
202.6000	-13.621	604.945
202.4000	-12.8765	611.13
202.2000	-11.2711	617.303
202.0000	-10.1551	623.422
201.8000	-9.2789	629.457
201.6000	-8.50909	635.391
201.4000	-7.66816	641.206
201.2000	-7.46618	646.888
201.0000	-8.07851	652.429
200.8000	-7.43321	657.829
200.6000	-6.79466	663.073
200.4000	-6.30921	668.155
200.2000	-6.52102	673.066
200.0000	-5.68864	677.81
199.8000	-4.99666	682.372
199.6000	-4.16539	686.743
199.4000	-2.93232	690.913
199.2000	-1.93113	694.873
199.0000	-1.03356	698.619
198.8000	-0.0479628	702.142
198.6000	1.04613	705.436
198.4000	1.12202	708.49
198.2000	1.02444	711.3
198.0000	1.33799	713.86
197.8000	1.41917	716.174
197.6000	1.68584	718.243
197.4000	2.03022	720.07
197.2000	2.00933	721.659
197.0000	1.90718	723.02
196.8000	1.79563	724.17
196.6000	2.26302	725.129
196.4000	1.84253	725.906
196.2000	1.66456	726.526
196.0000	1.70354	726.998
195.8000	1.72535	727.333
195.6000	1.65203	727.564
195.4000	1.41363	727.714
195.2000	1.14277	727.808
195.0000	0.729499	727.869

##### Extended Information
[Comments]
Sample name	Mota_1kx8_d07_notcep
Comment
User
Division
Company	EPFL

[Detailed Information]
Creation date	08.08.2017 15:39

Data array type	Linear data array * 2
Horizontal axis	Wavelength [nm]
Vertical axis(1)	CD [mdeg]
Vertical axis(2)	HT [V]
Start	250 nm
End	195 nm
Data interval	0.2 nm
Data points	276     

[Measurement Information]
Instrument Name	CD-Spectrometer
Model Name	J-815
Serial No.	A007961168

Accessory	PFD-425S
Accessory S/N	A001061180
  Temperature	25.07 C
  Control Sonsor	Holder
  Monitor Sensor	Holder
  Cell Length	10 mm

Photometric Mode	CD, HT
Measure Range	250 - 195 nm
Data pitch	0.2 nm
Sensitivity	Standard
D.I.T.	8 sec
Bandwidth	1.00 nm
Start Mode	Immediately
Scanning Speed	50 nm/min
Baseline Correction	None
Shutter Control	Auto
PMT Voltage	Auto
Accumulations	2
Solvent	PBS
Concentration	20 umol/L
End Temperature.	25 C
Start Temperature.	90 C
Temperature. Interval	5 C
Ramp Rate	5 C/min

