TITLE	Mota_1kx8_d07_notcep
DATA TYPE	
ORIGIN	JASCO
OWNER	
DATE	17/08/08
TIME	15:39:37
SPECTROMETER/DATA SYSTEM	
LOCALE	2055
RESOLUTION	
DELTAX	-0.2
XUNITS	NANOMETERS
YUNITS	CD [mdeg]
Y2UNITS	HT [V]
FIRSTX	  250.0000
LASTX	  195.0000
NPOINTS	     276
FIRSTY	    -0.02976
MAXY	     2.57975
MINY	   -22.48769
XYDATA
250.0000	-0.0297646	307.241
249.8000	-0.0434801	307.518
249.6000	-0.0800663	307.797
249.4000	-0.100598	308.079
249.2000	-0.1171	308.36
249.0000	-0.139138	308.643
248.8000	-0.172197	308.925
248.6000	-0.177446	309.211
248.4000	-0.181805	309.493
248.2000	-0.206257	309.779
248.0000	-0.263253	310.06
247.8000	-0.29788	310.344
247.6000	-0.324384	310.629
247.4000	-0.355079	310.918
247.2000	-0.383298	311.204
247.0000	-0.434007	311.493
246.8000	-0.46832	311.781
246.6000	-0.47899	312.07
246.4000	-0.496676	312.359
246.2000	-0.50128	312.651
246.0000	-0.517345	312.947
245.8000	-0.586109	313.238
245.6000	-0.62822	313.535
245.4000	-0.685197	313.832
245.2000	-0.727287	314.132
245.0000	-0.798064	314.439
244.8000	-0.865181	314.744
244.6000	-0.930138	315.054
244.4000	-0.982936	315.367
244.2000	-1.03042	315.681
244.0000	-1.07895	316.003
243.8000	-1.14052	316.328
243.6000	-1.19589	316.655
243.4000	-1.23622	316.986
243.2000	-1.31608	317.318
243.0000	-1.37764	317.652
242.8000	-1.44338	317.991
242.6000	-1.52889	318.333
242.4000	-1.62402	318.679
242.2000	-1.6832	319.028
242.0000	-1.7523	319.386
241.8000	-1.86085	319.745
241.6000	-1.97729	320.113
241.4000	-2.02502	320.485
241.2000	-2.09444	320.863
241.0000	-2.18264	321.25
240.8000	-2.27589	321.636
240.6000	-2.37924	322.032
240.4000	-2.4695	322.429
240.2000	-2.56186	322.834
240.0000	-2.65535	323.247
239.8000	-2.77268	323.665
239.6000	-2.89874	324.093
239.4000	-3.02129	324.522
239.2000	-3.1384	324.961
239.0000	-3.2699	325.41
238.8000	-3.39733	325.866
238.6000	-3.54673	326.328
238.4000	-3.68067	326.797
238.2000	-3.81089	327.275
238.0000	-3.95016	327.758
237.8000	-4.06587	328.25
237.6000	-4.19429	328.752
237.4000	-4.35088	329.258
237.2000	-4.50508	329.773
237.0000	-4.65126	330.301
236.8000	-4.817	330.835
236.6000	-4.97498	331.382
236.4000	-5.15754	331.936
236.2000	-5.33165	332.5
236.0000	-5.49323	333.072
235.8000	-5.65721	333.652
235.6000	-5.82705	334.24
235.4000	-6.01392	334.84
235.2000	-6.19521	335.448
235.0000	-6.38171	336.066
234.8000	-6.59109	336.695
234.6000	-6.76904	337.331
234.4000	-6.95952	337.977
234.2000	-7.16986	338.639
234.0000	-7.37504	339.308
233.8000	-7.57096	339.99
233.6000	-7.82835	340.68
233.4000	-8.0473	341.379
233.2000	-8.25468	342.086
233.0000	-8.453	342.8
232.8000	-8.67094	343.522
232.6000	-8.85366	344.251
232.4000	-9.03425	344.99
232.2000	-9.21682	345.74
232.0000	-9.38603	346.495
231.8000	-9.56997	347.261
231.6000	-9.79909	348.037
231.4000	-9.95905	348.822
231.2000	-10.1594	349.615
231.0000	-10.3727	350.414
230.8000	-10.5792	351.225
230.6000	-10.7785	352.033
230.4000	-10.9858	352.851
230.2000	-11.1696	353.67
230.0000	-11.3469	354.494
229.8000	-11.5419	355.321
229.6000	-11.6926	356.153
229.4000	-11.8527	356.987
229.2000	-12.0024	357.824
229.0000	-12.1871	358.664
228.8000	-12.3603	359.503
228.6000	-12.5258	360.347
228.4000	-12.692	361.187
228.2000	-12.8418	362.03
228.0000	-13.0626	362.876
227.8000	-13.257	363.719
227.6000	-13.4595	364.559
227.4000	-13.6158	365.399
227.2000	-13.7451	366.239
227.0000	-13.8205	367.078
226.8000	-13.8992	367.915
226.6000	-14.0188	368.755
226.4000	-14.1153	369.595
226.2000	-14.2305	370.431
226.0000	-14.3522	371.272
225.8000	-14.4979	372.108
225.6000	-14.624	372.947
225.4000	-14.7649	373.781
225.2000	-14.9297	374.61
225.0000	-15.0119	375.44
224.8000	-15.1635	376.266
224.6000	-15.2127	377.089
224.4000	-15.3119	377.91
224.2000	-15.3695	378.726
224.0000	-15.4005	379.548
223.8000	-15.4747	380.364
223.6000	-15.5701	381.186
223.4000	-15.7106	382.001
223.2000	-15.7904	382.82
223.0000	-15.8877	383.643
222.8000	-15.9486	384.462
222.6000	-16.0086	385.29
222.4000	-16.0512	386.116
222.2000	-16.0795	386.94
222.0000	-16.1147	387.769
221.8000	-16.1634	388.6
221.6000	-16.2095	389.435
221.4000	-16.2609	390.272
221.2000	-16.2497	391.11
221.0000	-16.239	391.949
220.8000	-16.2709	392.794
220.6000	-16.3413	393.64
220.4000	-16.3785	394.493
220.2000	-16.4221	395.352
220.0000	-16.4455	396.207
219.8000	-16.4264	397.074
219.6000	-16.4708	397.943
219.4000	-16.4554	398.819
219.2000	-16.4352	399.701
219.0000	-16.4144	400.586
218.8000	-16.4387	401.482
218.6000	-16.3776	402.385
218.4000	-16.3839	403.298
218.2000	-16.3594	404.219
218.0000	-16.4102	405.15
217.8000	-16.5343	406.09
217.6000	-16.6129	407.046
217.4000	-16.7308	408.009
217.2000	-16.7647	408.987
217.0000	-16.8189	409.973
216.8000	-16.805	410.981
216.6000	-16.7694	412.004
216.4000	-16.7631	413.038
216.2000	-16.8182	414.089
216.0000	-16.8297	415.155
215.8000	-16.8955	416.244
215.6000	-16.9524	417.35
215.4000	-17.1115	418.477
215.2000	-17.197	419.627
215.0000	-17.2594	420.805
214.8000	-17.314	422.002
214.6000	-17.3964	423.233
214.4000	-17.4817	424.492
214.2000	-17.6106	425.786
214.0000	-17.7579	427.108
213.8000	-17.9443	428.465
213.6000	-18.0808	429.86
213.4000	-18.1091	431.292
213.2000	-18.316	432.767
213.0000	-18.4178	434.28
212.8000	-18.5581	435.843
212.6000	-18.756	437.449
212.4000	-19.0152	439.111
212.2000	-19.1815	440.819
212.0000	-19.3473	442.579
211.8000	-19.4528	444.395
211.6000	-19.645	446.27
211.4000	-19.8337	448.211
211.2000	-19.9348	450.216
211.0000	-20.0325	452.289
210.8000	-20.2445	454.433
210.6000	-20.3054	456.657
210.4000	-20.4352	458.966
210.2000	-20.6422	461.355
210.0000	-20.9092	463.834
209.8000	-21.1507	466.402
209.6000	-21.3193	469.073
209.4000	-21.5157	471.84
209.2000	-21.5946	474.717
209.0000	-21.6821	477.708
208.8000	-21.7014	480.816
208.6000	-21.755	484.054
208.4000	-21.9069	487.41
208.2000	-22.0216	490.907
208.0000	-22.1928	494.536
207.8000	-22.3293	498.313
207.6000	-22.4008	502.247
207.4000	-22.4585	506.343
207.2000	-22.3196	510.606
207.0000	-22.3446	515.035
206.8000	-22.3965	519.642
206.6000	-22.4877	524.429
206.4000	-22.208	529.401
206.2000	-21.8222	534.557
206.0000	-21.5356	539.897
205.8000	-21.3	545.416
205.6000	-20.9011	551.109
205.4000	-20.6381	556.966
205.2000	-20.4217	562.979
205.0000	-19.8783	569.126
204.8000	-19.3843	575.391
204.6000	-18.5691	581.751
204.4000	-17.6849	588.18
204.2000	-17.034	594.645
204.0000	-16.6432	601.119
203.8000	-15.8375	607.579
203.6000	-15.0523	613.995
203.4000	-14.08	620.348
203.2000	-13.2006	626.619
203.0000	-12.6192	632.786
202.8000	-11.9712	638.84
202.6000	-11.6571	644.756
202.4000	-10.7227	650.53
202.2000	-9.79326	656.147
202.0000	-9.14839	661.599
201.8000	-8.3931	666.877
201.6000	-7.81782	671.97
201.4000	-7.15361	676.878
201.2000	-6.10944	681.586
201.0000	-5.10939	686.082
200.8000	-4.16552	690.359
200.6000	-3.31796	694.409
200.4000	-2.4357	698.229
200.2000	-1.29593	701.808
200.0000	-0.202532	705.142
199.8000	0.465112	708.222
199.6000	0.562133	711.043
199.4000	1.03359	713.603
199.2000	1.12541	715.901
199.0000	1.44122	717.941
198.8000	1.36196	719.731
198.6000	1.94725	721.277
198.4000	2.506	722.59
198.2000	2.26181	723.681
198.0000	2.43267	724.571
197.8000	2.21488	725.286
197.6000	2.39949	725.845
197.4000	2.57975	726.276
197.2000	2.26394	726.593
197.0000	1.84737	726.823
196.8000	1.26427	726.984
196.6000	1.39161	727.096
196.4000	1.52286	727.167
196.2000	1.65782	727.21
196.0000	1.4334	727.232
195.8000	1.34022	727.238
195.6000	1.28703	727.236
195.4000	1.15193	727.228
195.2000	0.896381	727.216
195.0000	1.50078	727.205

##### Extended Information
[Comments]
Sample name	Mota_1kx8_d07_notcep
Comment
User
Division
Company	EPFL

[Detailed Information]
Creation date	08.08.2017 15:39

Data array type	Linear data array * 2
Horizontal axis	Wavelength [nm]
Vertical axis(1)	CD [mdeg]
Vertical axis(2)	HT [V]
Start	250 nm
End	195 nm
Data interval	0.2 nm
Data points	276     

[Measurement Information]
Instrument Name	CD-Spectrometer
Model Name	J-815
Serial No.	A007961168

Accessory	PFD-425S
Accessory S/N	A001061180
  Temperature	25.07 C
  Control Sonsor	Holder
  Monitor Sensor	Holder
  Cell Length	10 mm

Photometric Mode	CD, HT
Measure Range	250 - 195 nm
Data pitch	0.2 nm
Sensitivity	Standard
D.I.T.	8 sec
Bandwidth	1.00 nm
Start Mode	Immediately
Scanning Speed	50 nm/min
Baseline Correction	None
Shutter Control	Auto
PMT Voltage	Auto
Accumulations	2
Solvent	PBS
Concentration	20 umol/L
End Temperature.	25 C
Start Temperature.	90 C
Temperature. Interval	5 C
Ramp Rate	5 C/min

