TITLE	Mota_1kx8_d07_notcep
DATA TYPE	
ORIGIN	JASCO
OWNER	
DATE	17/08/08
TIME	15:39:37
SPECTROMETER/DATA SYSTEM	
LOCALE	2055
RESOLUTION	
DELTAX	-0.2
XUNITS	NANOMETERS
YUNITS	CD [mdeg]
Y2UNITS	HT [V]
FIRSTX	  250.0000
LASTX	  195.0000
NPOINTS	     276
FIRSTY	     0.07590
MAXY	     2.15444
MINY	   -26.76601
XYDATA
250.0000	0.0758974	307.082
249.8000	0.0197565	307.357
249.6000	0.0174128	307.631
249.4000	0.0257862	307.907
249.2000	0.0157887	308.183
249.0000	-0.0104574	308.462
248.8000	-0.0198154	308.739
248.6000	-0.0540701	309.019
248.4000	-0.0792091	309.299
248.2000	-0.104153	309.58
248.0000	-0.0979569	309.864
247.8000	-0.105689	310.142
247.6000	-0.140515	310.425
247.4000	-0.177866	310.708
247.2000	-0.209383	310.994
247.0000	-0.237625	311.277
246.8000	-0.272123	311.561
246.6000	-0.306311	311.848
246.4000	-0.33566	312.135
246.2000	-0.360518	312.425
246.0000	-0.401581	312.717
245.8000	-0.411208	313.006
245.6000	-0.423692	313.295
245.4000	-0.461925	313.591
245.2000	-0.509908	313.888
245.0000	-0.567435	314.188
244.8000	-0.621997	314.492
244.6000	-0.694638	314.795
244.4000	-0.741181	315.1
244.2000	-0.795918	315.41
244.0000	-0.85858	315.721
243.8000	-0.93585	316.037
243.6000	-0.991297	316.355
243.4000	-1.0675	316.676
243.2000	-1.13014	317.005
243.0000	-1.18127	317.337
242.8000	-1.22109	317.672
242.6000	-1.31141	318.012
242.4000	-1.37565	318.35
242.2000	-1.44844	318.698
242.0000	-1.55509	319.048
241.8000	-1.64323	319.403
241.6000	-1.74222	319.763
241.4000	-1.8463	320.126
241.2000	-1.96451	320.495
241.0000	-2.07258	320.873
240.8000	-2.18648	321.254
240.6000	-2.31382	321.636
240.4000	-2.43902	322.026
240.2000	-2.53239	322.424
240.0000	-2.67827	322.826
239.8000	-2.84383	323.236
239.6000	-3.00762	323.652
239.4000	-3.16482	324.07
239.2000	-3.33072	324.501
239.0000	-3.48475	324.941
238.8000	-3.64291	325.386
238.6000	-3.79989	325.837
238.4000	-3.93564	326.295
238.2000	-4.09856	326.764
238.0000	-4.24285	327.241
237.8000	-4.42029	327.726
237.6000	-4.599	328.221
237.4000	-4.7898	328.72
237.2000	-4.96579	329.233
237.0000	-5.16587	329.751
236.8000	-5.3691	330.282
236.6000	-5.56724	330.822
236.4000	-5.7615	331.37
236.2000	-5.98502	331.929
236.0000	-6.17862	332.497
235.8000	-6.4047	333.079
235.6000	-6.62291	333.666
235.4000	-6.86404	334.265
235.2000	-7.08722	334.873
235.0000	-7.29437	335.491
234.8000	-7.54043	336.125
234.6000	-7.7652	336.764
234.4000	-8.03387	337.417
234.2000	-8.27501	338.085
234.0000	-8.49438	338.766
233.8000	-8.70878	339.46
233.6000	-8.96791	340.161
233.4000	-9.20129	340.874
233.2000	-9.43282	341.595
233.0000	-9.69239	342.325
232.8000	-9.925	343.061
232.6000	-10.1746	343.806
232.4000	-10.4513	344.561
232.2000	-10.711	345.327
232.0000	-10.9819	346.104
231.8000	-11.2706	346.891
231.6000	-11.539	347.686
231.4000	-11.8141	348.489
231.2000	-12.0821	349.3
231.0000	-12.3339	350.118
230.8000	-12.6073	350.947
230.6000	-12.9131	351.777
230.4000	-13.2084	352.612
230.2000	-13.4997	353.451
230.0000	-13.7826	354.294
229.8000	-14.0555	355.136
229.6000	-14.2757	355.985
229.4000	-14.5493	356.831
229.2000	-14.7767	357.68
229.0000	-15.0282	358.534
228.8000	-15.2891	359.39
228.6000	-15.5251	360.246
228.4000	-15.7972	361.102
228.2000	-16.0953	361.956
228.0000	-16.3588	362.816
227.8000	-16.6077	363.665
227.6000	-16.8282	364.514
227.4000	-17.0241	365.362
227.2000	-17.2383	366.204
227.0000	-17.4817	367.046
226.8000	-17.7085	367.884
226.6000	-17.9256	368.723
226.4000	-18.105	369.559
226.2000	-18.2805	370.398
226.0000	-18.4636	371.237
225.8000	-18.6397	372.07
225.6000	-18.7945	372.902
225.4000	-18.9747	373.729
225.2000	-19.0782	374.553
225.0000	-19.2183	375.375
224.8000	-19.363	376.19
224.6000	-19.4587	377.004
224.4000	-19.5675	377.815
224.2000	-19.7174	378.618
224.0000	-19.8531	379.428
223.8000	-19.9378	380.234
223.6000	-19.9738	381.045
223.4000	-19.9769	381.853
223.2000	-20.0014	382.66
223.0000	-20.0969	383.469
222.8000	-20.1833	384.279
222.6000	-20.2808	385.092
222.4000	-20.3319	385.904
222.2000	-20.3996	386.714
222.0000	-20.4764	387.527
221.8000	-20.5836	388.34
221.6000	-20.5916	389.157
221.4000	-20.5807	389.974
221.2000	-20.6323	390.796
221.0000	-20.686	391.619
220.8000	-20.7674	392.442
220.6000	-20.8597	393.272
220.4000	-20.8558	394.102
220.2000	-20.8901	394.935
220.0000	-20.9518	395.774
219.8000	-20.9919	396.615
219.6000	-20.9949	397.459
219.4000	-21.0166	398.308
219.2000	-21.0211	399.158
219.0000	-21.0187	400.018
218.8000	-20.9311	400.881
218.6000	-20.94	401.752
218.4000	-20.921	402.63
218.2000	-20.9199	403.516
218.0000	-20.9757	404.412
217.8000	-20.9767	405.311
217.6000	-21.0103	406.223
217.4000	-21.0227	407.14
217.2000	-21.0375	408.068
217.0000	-21.0618	409.005
216.8000	-21.1261	409.951
216.6000	-21.1351	410.911
216.4000	-21.1423	411.879
216.2000	-21.222	412.864
216.0000	-21.1997	413.86
215.8000	-21.2593	414.873
215.6000	-21.3188	415.9
215.4000	-21.38	416.939
215.2000	-21.4196	418.002
215.0000	-21.4202	419.079
214.8000	-21.4653	420.175
214.6000	-21.4809	421.29
214.4000	-21.5423	422.425
214.2000	-21.5279	423.586
214.0000	-21.55	424.77
213.8000	-21.6839	425.977
213.6000	-21.7904	427.207
213.4000	-21.8775	428.465
213.2000	-21.9712	429.753
213.0000	-22.0754	431.069
212.8000	-22.1835	432.413
212.6000	-22.3715	433.791
212.4000	-22.6047	435.201
212.2000	-22.8079	436.644
212.0000	-23.03	438.118
211.8000	-23.2597	439.632
211.6000	-23.4965	441.176
211.4000	-23.684	442.761
211.2000	-23.8703	444.389
211.0000	-24.0457	446.055
210.8000	-24.2404	447.764
210.6000	-24.4336	449.517
210.4000	-24.6557	451.315
210.2000	-24.8715	453.159
210.0000	-25.1856	455.05
209.8000	-25.4688	456.993
209.6000	-25.7226	458.986
209.4000	-25.8145	461.027
209.2000	-25.9507	463.123
209.0000	-26.0091	465.274
208.8000	-26.0363	467.487
208.6000	-26.1014	469.757
208.4000	-26.1431	472.091
208.2000	-26.2235	474.491
208.0000	-26.3693	476.955
207.8000	-26.4855	479.492
207.6000	-26.5878	482.097
207.4000	-26.766	484.779
207.2000	-26.6003	487.536
207.0000	-26.4237	490.376
206.8000	-26.1844	493.299
206.6000	-25.9214	496.309
206.4000	-25.7049	499.411
206.2000	-25.3844	502.607
206.0000	-25.1997	505.904
205.8000	-24.8764	509.307
205.6000	-24.481	512.816
205.4000	-24.0933	516.438
205.2000	-23.7094	520.181
205.0000	-23.3655	524.049
204.8000	-23.054	528.052
204.6000	-22.6675	532.187
204.4000	-22.4404	536.465
204.2000	-21.9235	540.885
204.0000	-21.2228	545.452
203.8000	-20.4236	550.17
203.6000	-19.4662	555.039
203.4000	-18.262	560.057
203.2000	-17.7049	565.223
203.0000	-17.2798	570.525
202.8000	-16.5386	575.966
202.6000	-15.4429	581.526
202.4000	-14.7682	587.193
202.2000	-14.1319	592.948
202.0000	-13.3276	598.767
201.8000	-12.4316	604.635
201.6000	-11.8162	610.525
201.4000	-10.7465	616.424
201.2000	-9.93354	622.301
201.0000	-9.04935	628.131
200.8000	-7.71722	633.906
200.6000	-7.06973	639.601
200.4000	-6.8145	645.199
200.2000	-6.23035	650.688
200.0000	-5.94158	656.055
199.8000	-5.55671	661.291
199.6000	-5.27251	666.382
199.4000	-4.80997	671.325
199.2000	-4.10158	676.106
199.0000	-3.43182	680.726
198.8000	-2.88789	685.17
198.6000	-1.95958	689.435
198.4000	-0.960069	693.509
198.2000	-0.340724	697.382
198.0000	0.206905	701.047
197.8000	1.26455	704.505
197.6000	1.62348	707.745
197.4000	1.67289	710.76
197.2000	1.8565	713.554
197.0000	1.48145	716.11
196.8000	1.05268	718.437
196.6000	1.02481	720.531
196.4000	1.90607	722.398
196.2000	2.15444	724.039
196.0000	1.80799	725.463
195.8000	1.77319	726.685
195.6000	1.52094	727.711
195.4000	2.06938	728.566
195.2000	2.01498	729.263
195.0000	2.1364	729.819

##### Extended Information
[Comments]
Sample name	Mota_1kx8_d07_notcep
Comment
User
Division
Company	EPFL

[Detailed Information]
Creation date	08.08.2017 15:39

Data array type	Linear data array * 2
Horizontal axis	Wavelength [nm]
Vertical axis(1)	CD [mdeg]
Vertical axis(2)	HT [V]
Start	250 nm
End	195 nm
Data interval	0.2 nm
Data points	276     

[Measurement Information]
Instrument Name	CD-Spectrometer
Model Name	J-815
Serial No.	A007961168

Accessory	PFD-425S
Accessory S/N	A001061180
  Temperature	25.07 C
  Control Sonsor	Holder
  Monitor Sensor	Holder
  Cell Length	10 mm

Photometric Mode	CD, HT
Measure Range	250 - 195 nm
Data pitch	0.2 nm
Sensitivity	Standard
D.I.T.	8 sec
Bandwidth	1.00 nm
Start Mode	Immediately
Scanning Speed	50 nm/min
Baseline Correction	None
Shutter Control	Auto
PMT Voltage	Auto
Accumulations	2
Solvent	PBS
Concentration	20 umol/L
End Temperature.	25 C
Start Temperature.	90 C
Temperature. Interval	5 C
Ramp Rate	5 C/min

