TITLE	Mota_1kx8_d05_notcep
DATA TYPE	
ORIGIN	JASCO
OWNER	
DATE	17/08/08
TIME	12:22:00
SPECTROMETER/DATA SYSTEM	
LOCALE	2055
RESOLUTION	
DELTAX	-0.2
XUNITS	NANOMETERS
YUNITS	CD [mdeg]
Y2UNITS	HT [V]
FIRSTX	  250.0000
LASTX	  195.0000
NPOINTS	     276
FIRSTY	    -0.02353
MAXY	     2.47470
MINY	   -21.18393
XYDATA
250.0000	-0.0235281	307.286
249.8000	-0.0183105	307.562
249.6000	-0.00451641	307.84
249.4000	0.016732	308.12
249.2000	0.0263758	308.398
249.0000	0.0217464	308.679
248.8000	0.00121899	308.958
248.6000	0.00716782	309.24
248.4000	0.0106609	309.526
248.2000	0.0119122	309.809
248.0000	-0.0221416	310.094
247.8000	-0.026651	310.378
247.6000	-0.0376898	310.664
247.4000	-0.0447681	310.954
247.2000	-0.0644346	311.242
247.0000	-0.0691433	311.531
246.8000	-0.0946611	311.821
246.6000	-0.133024	312.11
246.4000	-0.163849	312.398
246.2000	-0.184042	312.692
246.0000	-0.218576	312.984
245.8000	-0.255862	313.278
245.6000	-0.285664	313.575
245.4000	-0.312101	313.875
245.2000	-0.35651	314.18
245.0000	-0.397145	314.486
244.8000	-0.444729	314.796
244.6000	-0.497114	315.106
244.4000	-0.572337	315.419
244.2000	-0.626159	315.735
244.0000	-0.669436	316.054
243.8000	-0.720862	316.378
243.6000	-0.753285	316.706
243.4000	-0.820572	317.041
243.2000	-0.900966	317.378
243.0000	-0.986431	317.717
242.8000	-1.08091	318.063
242.6000	-1.19589	318.408
242.4000	-1.25837	318.762
242.2000	-1.32012	319.12
242.0000	-1.40003	319.48
241.8000	-1.49971	319.844
241.6000	-1.58323	320.217
241.4000	-1.66329	320.593
241.2000	-1.74847	320.976
241.0000	-1.83743	321.365
240.8000	-1.96345	321.759
240.6000	-2.0946	322.16
240.4000	-2.21711	322.565
240.2000	-2.33161	322.978
240.0000	-2.42352	323.399
239.8000	-2.50604	323.827
239.6000	-2.6208	324.263
239.4000	-2.73875	324.706
239.2000	-2.84959	325.159
239.0000	-2.97524	325.617
238.8000	-3.14518	326.084
238.6000	-3.25187	326.557
238.4000	-3.34901	327.034
238.2000	-3.44748	327.523
238.0000	-3.58755	328.02
237.8000	-3.71242	328.53
237.6000	-3.81902	329.048
237.4000	-3.96064	329.569
237.2000	-4.11805	330.104
237.0000	-4.24898	330.647
236.8000	-4.42172	331.196
236.6000	-4.58077	331.757
236.4000	-4.75223	332.322
236.2000	-4.89559	332.901
236.0000	-5.03861	333.489
235.8000	-5.19697	334.084
235.6000	-5.38677	334.692
235.4000	-5.55204	335.306
235.2000	-5.72361	335.931
235.0000	-5.90545	336.567
234.8000	-6.09313	337.208
234.6000	-6.28359	337.863
234.4000	-6.47449	338.525
234.2000	-6.66179	339.195
234.0000	-6.80427	339.88
233.8000	-6.9672	340.569
233.6000	-7.17848	341.27
233.4000	-7.39441	341.976
233.2000	-7.62745	342.689
233.0000	-7.85107	343.408
232.8000	-8.05018	344.132
232.6000	-8.26674	344.863
232.4000	-8.45428	345.601
232.2000	-8.62581	346.345
232.0000	-8.82657	347.103
231.8000	-9.02273	347.87
231.6000	-9.23681	348.641
231.4000	-9.47611	349.42
231.2000	-9.68006	350.199
231.0000	-9.93837	350.989
230.8000	-10.184	351.782
230.6000	-10.3495	352.58
230.4000	-10.5622	353.385
230.2000	-10.8238	354.187
230.0000	-11.0292	354.994
229.8000	-11.2321	355.803
229.6000	-11.4265	356.616
229.4000	-11.6473	357.431
229.2000	-11.8517	358.244
229.0000	-12.0473	359.059
228.8000	-12.2429	359.875
228.6000	-12.4298	360.694
228.4000	-12.655	361.509
228.2000	-12.9137	362.33
228.0000	-13.1012	363.149
227.8000	-13.323	363.966
227.6000	-13.4779	364.779
227.4000	-13.6563	365.593
227.2000	-13.8528	366.408
227.0000	-14.0276	367.218
226.8000	-14.1795	368.032
226.6000	-14.3183	368.844
226.4000	-14.4618	369.657
226.2000	-14.6351	370.47
226.0000	-14.7828	371.281
225.8000	-14.9794	372.097
225.6000	-15.1816	372.908
225.4000	-15.3419	373.715
225.2000	-15.4863	374.521
225.0000	-15.6184	375.32
224.8000	-15.6981	376.119
224.6000	-15.8076	376.918
224.4000	-15.8609	377.715
224.2000	-15.9311	378.509
224.0000	-16.0381	379.303
223.8000	-16.1586	380.096
223.6000	-16.2125	380.89
223.4000	-16.2977	381.684
223.2000	-16.3449	382.482
223.0000	-16.3972	383.281
222.8000	-16.4467	384.085
222.6000	-16.5249	384.888
222.4000	-16.5909	385.69
222.2000	-16.6382	386.498
222.0000	-16.6816	387.303
221.8000	-16.7489	388.115
221.6000	-16.7667	388.924
221.4000	-16.7784	389.737
221.2000	-16.8332	390.554
221.0000	-16.8857	391.373
220.8000	-16.9766	392.198
220.6000	-16.9795	393.02
220.4000	-17.0464	393.851
220.2000	-17.0285	394.681
220.0000	-16.9962	395.518
219.8000	-16.9902	396.356
219.6000	-17.0252	397.206
219.4000	-17.0397	398.058
219.2000	-16.9706	398.915
219.0000	-16.9296	399.779
218.8000	-16.9425	400.646
218.6000	-16.9856	401.526
218.4000	-16.9664	402.413
218.2000	-16.9639	403.306
218.0000	-16.9554	404.209
217.8000	-16.9919	405.118
217.6000	-17.064	406.043
217.4000	-17.0725	406.974
217.2000	-17.0976	407.917
217.0000	-17.1054	408.87
216.8000	-17.1459	409.836
216.6000	-17.1969	410.815
216.4000	-17.2507	411.8
216.2000	-17.2931	412.801
216.0000	-17.2817	413.815
215.8000	-17.3144	414.846
215.6000	-17.3483	415.895
215.4000	-17.4032	416.957
215.2000	-17.4033	418.038
215.0000	-17.4416	419.139
214.8000	-17.5433	420.263
214.6000	-17.57	421.404
214.4000	-17.5925	422.567
214.2000	-17.6494	423.755
214.0000	-17.7629	424.966
213.8000	-17.8855	426.201
213.6000	-17.9386	427.466
213.4000	-18.1099	428.754
213.2000	-18.2062	430.075
213.0000	-18.3301	431.42
212.8000	-18.461	432.8
212.6000	-18.5926	434.21
212.4000	-18.6912	435.654
212.2000	-18.8353	437.134
212.0000	-18.9668	438.644
211.8000	-19.1114	440.193
211.6000	-19.3028	441.783
211.4000	-19.4696	443.416
211.2000	-19.5131	445.09
211.0000	-19.6444	446.81
210.8000	-19.7313	448.571
210.6000	-19.7759	450.384
210.4000	-19.9397	452.24
210.2000	-20.1288	454.147
210.0000	-20.25	456.101
209.8000	-20.4883	458.114
209.6000	-20.6781	460.178
209.4000	-20.8116	462.298
209.2000	-20.8946	464.484
209.0000	-20.9209	466.727
208.8000	-21.0662	469.039
208.6000	-21.1839	471.421
208.4000	-21.1198	473.868
208.2000	-21.0973	476.389
208.0000	-21.0028	478.99
207.8000	-20.9837	481.666
207.6000	-20.8893	484.429
207.4000	-20.7834	487.278
207.2000	-20.7332	490.216
207.0000	-20.8174	493.247
206.8000	-20.7968	496.383
206.6000	-20.876	499.615
206.4000	-20.6437	502.96
206.2000	-20.5422	506.412
206.0000	-20.5854	509.974
205.8000	-20.3565	513.658
205.6000	-20.0175	517.462
205.4000	-19.5565	521.4
205.2000	-19.1816	525.468
205.0000	-18.9168	529.683
204.8000	-18.2835	534.043
204.6000	-17.8109	538.546
204.4000	-17.2188	543.202
204.2000	-16.6349	548.014
204.0000	-16.0862	552.978
203.8000	-15.8921	558.096
203.6000	-15.2207	563.371
203.4000	-14.7804	568.794
203.2000	-14.2534	574.354
203.0000	-13.4612	580.052
202.8000	-12.4994	585.873
202.6000	-11.8182	591.789
202.4000	-11.2423	597.796
202.2000	-11.2137	603.857
202.0000	-10.474	609.959
201.8000	-9.66315	616.08
201.6000	-9.17002	622.193
201.4000	-8.7966	628.272
201.2000	-8.20858	634.31
201.0000	-7.87449	640.272
200.8000	-7.58	646.146
200.6000	-6.91169	651.918
200.4000	-5.55344	657.574
200.2000	-4.68304	663.097
200.0000	-3.75726	668.474
199.8000	-3.25923	673.696
199.6000	-3.24021	678.758
199.4000	-2.42118	683.658
199.2000	-2.16839	688.378
199.0000	-2.3089	692.916
198.8000	-2.23238	697.259
198.6000	-2.18318	701.404
198.4000	-1.70094	705.34
198.2000	-1.50672	709.054
198.0000	-1.1637	712.547
197.8000	-1.05767	715.818
197.6000	-0.822645	718.861
197.4000	-1.1564	721.666
197.2000	-0.384775	724.235
197.0000	-0.217473	726.56
196.8000	0.507462	728.655
196.6000	0.597966	730.524
196.4000	0.784143	732.164
196.2000	0.330887	733.584
196.0000	0.83579	734.805
195.8000	1.17077	735.838
195.6000	2.4747	736.703
195.4000	2.39396	737.399
195.2000	1.58886	737.95
195.0000	1.43807	738.382

##### Extended Information
[Comments]
Sample name	Mota_1kx8_d05_notcep
Comment
User
Division
Company	EPFL

[Detailed Information]
Creation date	08.08.2017 12:22

Data array type	Linear data array * 2
Horizontal axis	Wavelength [nm]
Vertical axis(1)	CD [mdeg]
Vertical axis(2)	HT [V]
Start	250 nm
End	195 nm
Data interval	0.2 nm
Data points	276     

[Measurement Information]
Instrument Name	CD-Spectrometer
Model Name	J-815
Serial No.	A007961168

Accessory	PFD-425S
Accessory S/N	A001061180
  Temperature	25.02 C
  Control Sonsor	Holder
  Monitor Sensor	Holder
  Cell Length	10 mm

Photometric Mode	CD, HT
Measure Range	250 - 195 nm
Data pitch	0.2 nm
Sensitivity	Standard
D.I.T.	8 sec
Bandwidth	1.00 nm
Start Mode	Immediately
Scanning Speed	50 nm/min
Baseline Correction	None
Shutter Control	Auto
PMT Voltage	Auto
Accumulations	2
Solvent	PBS
Concentration	20 umol/L
End Temperature.	25 C
Start Temperature.	95 C
Temperature. Interval	5 C
Ramp Rate	5 C/min

