TITLE	Mota_1kx8_d05_notcep
DATA TYPE	
ORIGIN	JASCO
OWNER	
DATE	17/08/08
TIME	12:22:00
SPECTROMETER/DATA SYSTEM	
LOCALE	2055
RESOLUTION	
DELTAX	-0.2
XUNITS	NANOMETERS
YUNITS	CD [mdeg]
Y2UNITS	HT [V]
FIRSTX	  250.0000
LASTX	  195.0000
NPOINTS	     276
FIRSTY	     0.10482
MAXY	     3.06985
MINY	   -21.53764
XYDATA
250.0000	0.104824	307.266
249.8000	0.0705648	307.542
249.6000	0.0471642	307.821
249.4000	0.0305954	308.099
249.2000	0.00920353	308.378
249.0000	0.000231361	308.656
248.8000	0.00267677	308.937
248.6000	-0.00624561	309.214
248.4000	-0.0341642	309.498
248.2000	-0.0496511	309.779
248.0000	-0.0511925	310.062
247.8000	-0.0521446	310.344
247.6000	-0.0793549	310.628
247.4000	-0.0966209	310.915
247.2000	-0.108587	311.201
247.0000	-0.136139	311.492
246.8000	-0.182939	311.778
246.6000	-0.219733	312.066
246.4000	-0.233297	312.355
246.2000	-0.277261	312.648
246.0000	-0.307688	312.943
245.8000	-0.324365	313.235
245.6000	-0.355557	313.529
245.4000	-0.384491	313.826
245.2000	-0.424188	314.128
245.0000	-0.467229	314.434
244.8000	-0.489484	314.743
244.6000	-0.53069	315.056
244.4000	-0.577098	315.37
244.2000	-0.591203	315.686
244.0000	-0.634122	316.008
243.8000	-0.697292	316.331
243.6000	-0.733362	316.659
243.4000	-0.782521	316.99
243.2000	-0.833945	317.326
243.0000	-0.878399	317.662
242.8000	-0.931976	318.006
242.6000	-0.980997	318.353
242.4000	-1.0652	318.705
242.2000	-1.17542	319.06
242.0000	-1.28002	319.423
241.8000	-1.36416	319.788
241.6000	-1.44759	320.16
241.4000	-1.56694	320.539
241.2000	-1.65999	320.921
241.0000	-1.75661	321.31
240.8000	-1.83087	321.706
240.6000	-1.93533	322.103
240.4000	-1.99789	322.508
240.2000	-2.09319	322.922
240.0000	-2.20065	323.345
239.8000	-2.29278	323.774
239.6000	-2.38812	324.208
239.4000	-2.4859	324.647
239.2000	-2.62047	325.098
239.0000	-2.74049	325.556
238.8000	-2.87134	326.024
238.6000	-3.00117	326.496
238.4000	-3.14464	326.974
238.2000	-3.27071	327.461
238.0000	-3.40841	327.96
237.8000	-3.52101	328.462
237.6000	-3.66504	328.975
237.4000	-3.84827	329.497
237.2000	-3.98674	330.026
237.0000	-4.14447	330.566
236.8000	-4.29494	331.116
236.6000	-4.44589	331.677
236.4000	-4.5931	332.246
236.2000	-4.77333	332.824
236.0000	-4.97223	333.412
235.8000	-5.14538	334.01
235.6000	-5.30812	334.617
235.4000	-5.44305	335.233
235.2000	-5.61132	335.859
235.0000	-5.79399	336.494
234.8000	-5.98262	337.134
234.6000	-6.18455	337.786
234.4000	-6.37968	338.447
234.2000	-6.57444	339.119
234.0000	-6.78639	339.801
233.8000	-6.99889	340.493
233.6000	-7.24755	341.19
233.4000	-7.47169	341.895
233.2000	-7.72927	342.609
233.0000	-7.97047	343.328
232.8000	-8.22474	344.054
232.6000	-8.45699	344.789
232.4000	-8.66638	345.529
232.2000	-8.88456	346.278
232.0000	-9.0659	347.035
231.8000	-9.27773	347.801
231.6000	-9.4973	348.576
231.4000	-9.72413	349.354
231.2000	-9.98759	350.142
231.0000	-10.2395	350.929
230.8000	-10.4631	351.726
230.6000	-10.6846	352.528
230.4000	-10.9297	353.335
230.2000	-11.1489	354.144
230.0000	-11.3502	354.951
229.8000	-11.5639	355.76
229.6000	-11.7847	356.57
229.4000	-11.9954	357.385
229.2000	-12.1874	358.199
229.0000	-12.3879	359.018
228.8000	-12.6237	359.833
228.6000	-12.8424	360.653
228.4000	-13.0575	361.47
228.2000	-13.2362	362.29
228.0000	-13.4058	363.111
227.8000	-13.5907	363.934
227.6000	-13.8045	364.75
227.4000	-14.02	365.567
227.2000	-14.2161	366.383
227.0000	-14.3998	367.198
226.8000	-14.5292	368.014
226.6000	-14.6512	368.828
226.4000	-14.8009	369.644
226.2000	-14.9448	370.458
226.0000	-15.0867	371.272
225.8000	-15.2657	372.086
225.6000	-15.4169	372.893
225.4000	-15.608	373.705
225.2000	-15.7887	374.511
225.0000	-15.8895	375.316
224.8000	-16.0111	376.118
224.6000	-16.0995	376.92
224.4000	-16.1978	377.72
224.2000	-16.3023	378.516
224.0000	-16.3879	379.314
223.8000	-16.448	380.108
223.6000	-16.5019	380.904
223.4000	-16.6014	381.701
223.2000	-16.7426	382.502
223.0000	-16.7836	383.304
222.8000	-16.8702	384.11
222.6000	-16.923	384.914
222.4000	-16.9786	385.719
222.2000	-16.9944	386.526
222.0000	-17.0208	387.331
221.8000	-17.0497	388.142
221.6000	-17.0826	388.956
221.4000	-17.0775	389.766
221.2000	-17.0636	390.583
221.0000	-17.0596	391.398
220.8000	-17.0907	392.221
220.6000	-17.1031	393.045
220.4000	-17.0853	393.871
220.2000	-17.1118	394.702
220.0000	-17.1423	395.538
219.8000	-17.1611	396.382
219.6000	-17.1715	397.229
219.4000	-17.147	398.084
219.2000	-17.0899	398.942
219.0000	-17.099	399.808
218.8000	-17.0887	400.674
218.6000	-16.9884	401.55
218.4000	-17.027	402.434
218.2000	-17.0705	403.321
218.0000	-17.044	404.22
217.8000	-17.0297	405.132
217.6000	-17.0321	406.049
217.4000	-17.0391	406.976
217.2000	-17.0856	407.912
217.0000	-17.1424	408.857
216.8000	-17.1751	409.812
216.6000	-17.1342	410.782
216.4000	-17.0958	411.763
216.2000	-17.1226	412.756
216.0000	-17.1576	413.766
215.8000	-17.1527	414.791
215.6000	-17.1913	415.832
215.4000	-17.2601	416.892
215.2000	-17.3549	417.971
215.0000	-17.3695	419.064
214.8000	-17.408	420.179
214.6000	-17.4659	421.311
214.4000	-17.5563	422.466
214.2000	-17.6499	423.645
214.0000	-17.665	424.851
213.8000	-17.6702	426.081
213.6000	-17.7225	427.336
213.4000	-17.8925	428.611
213.2000	-18.028	429.914
213.0000	-18.133	431.244
212.8000	-18.2655	432.603
212.6000	-18.4596	433.995
212.4000	-18.5959	435.419
212.2000	-18.6595	436.881
212.0000	-18.8651	438.374
211.8000	-18.949	439.905
211.6000	-18.9593	441.474
211.4000	-19.206	443.08
211.2000	-19.4618	444.727
211.0000	-19.5309	446.419
210.8000	-19.6819	448.148
210.6000	-19.8485	449.928
210.4000	-19.9371	451.754
210.2000	-20.1011	453.628
210.0000	-20.2872	455.553
209.8000	-20.3694	457.525
209.6000	-20.5413	459.549
209.4000	-20.6618	461.629
209.2000	-20.9157	463.765
209.0000	-21.1109	465.956
208.8000	-21.1525	468.208
208.6000	-21.1733	470.521
208.4000	-21.3266	472.902
208.2000	-21.3487	475.35
208.0000	-21.5174	477.872
207.8000	-21.5376	480.467
207.6000	-21.415	483.135
207.4000	-21.2951	485.883
207.2000	-21.3117	488.708
207.0000	-21.2514	491.62
206.8000	-21.1367	494.635
206.6000	-20.8041	497.735
206.4000	-20.7089	500.937
206.2000	-20.6126	504.232
206.0000	-20.4554	507.634
205.8000	-20.302	511.146
205.6000	-19.9825	514.765
205.4000	-19.8509	518.502
205.2000	-19.6495	522.359
205.0000	-19.4558	526.347
204.8000	-18.9185	530.471
204.6000	-18.452	534.726
204.4000	-18.0709	539.122
204.2000	-17.5297	543.662
204.0000	-17.0407	548.346
203.8000	-16.4165	553.175
203.6000	-15.8632	558.146
203.4000	-15.3358	563.264
203.2000	-14.4729	568.525
203.0000	-13.3792	573.927
202.8000	-12.5308	579.46
202.6000	-12.1038	585.102
202.4000	-11.4582	590.853
202.2000	-10.3553	596.694
202.0000	-9.82383	602.599
201.8000	-8.47646	608.561
201.6000	-7.44585	614.544
201.4000	-6.72451	620.532
201.2000	-6.82401	626.503
201.0000	-6.34097	632.436
200.8000	-5.63243	638.313
200.6000	-5.27905	644.118
200.4000	-4.17729	649.831
200.2000	-2.99374	655.433
200.0000	-2.28475	660.91
199.8000	-1.58695	666.251
199.6000	-1.20602	671.453
199.4000	-1.04003	676.499
199.2000	-1.10584	681.385
199.0000	-0.146143	686.104
198.8000	0.99801	690.649
198.6000	1.67201	695.006
198.4000	2.07142	699.174
198.2000	2.24473	703.132
198.0000	2.43892	706.886
197.8000	1.91271	710.423
197.6000	2.18476	713.749
197.4000	2.74959	716.852
197.2000	2.91591	719.729
197.0000	2.82087	722.377
196.8000	2.6744	724.796
196.6000	2.71472	726.986
196.4000	2.76202	728.945
196.2000	2.43979	730.677
196.0000	2.72235	732.195
195.8000	3.06985	733.507
195.6000	2.76807	734.623
195.4000	2.60068	735.559
195.2000	2.84576	736.337
195.0000	2.81139	736.964

##### Extended Information
[Comments]
Sample name	Mota_1kx8_d05_notcep
Comment
User
Division
Company	EPFL

[Detailed Information]
Creation date	08.08.2017 12:22

Data array type	Linear data array * 2
Horizontal axis	Wavelength [nm]
Vertical axis(1)	CD [mdeg]
Vertical axis(2)	HT [V]
Start	250 nm
End	195 nm
Data interval	0.2 nm
Data points	276     

[Measurement Information]
Instrument Name	CD-Spectrometer
Model Name	J-815
Serial No.	A007961168

Accessory	PFD-425S
Accessory S/N	A001061180
  Temperature	25.02 C
  Control Sonsor	Holder
  Monitor Sensor	Holder
  Cell Length	10 mm

Photometric Mode	CD, HT
Measure Range	250 - 195 nm
Data pitch	0.2 nm
Sensitivity	Standard
D.I.T.	8 sec
Bandwidth	1.00 nm
Start Mode	Immediately
Scanning Speed	50 nm/min
Baseline Correction	None
Shutter Control	Auto
PMT Voltage	Auto
Accumulations	2
Solvent	PBS
Concentration	20 umol/L
End Temperature.	25 C
Start Temperature.	95 C
Temperature. Interval	5 C
Ramp Rate	5 C/min

