TITLE	1kx8_006
DATA TYPE	
ORIGIN	JASCO
OWNER	
DATE	17/04/27
TIME	17:59:47
SPECTROMETER/DATA SYSTEM	
LOCALE	2055
RESOLUTION	
DELTAX	-0.2
XUNITS	NANOMETERS
YUNITS	CD [mdeg]
Y2UNITS	HT [V]
FIRSTX	  250.0000
LASTX	  190.0000
NPOINTS	     301
FIRSTY	    -0.07491
MAXY	     5.57972
MINY	   -16.58744
XYDATA
250.0000	-0.0749056	306.402
249.8000	-0.0996458	306.686
249.6000	-0.102305	306.97
249.4000	-0.11192	307.256
249.2000	-0.120398	307.543
249.0000	-0.12456	307.829
248.8000	-0.112314	308.115
248.6000	-0.0965227	308.404
248.4000	-0.0793022	308.691
248.2000	-0.0882517	308.98
248.0000	-0.116798	309.273
247.8000	-0.139701	309.565
247.6000	-0.148854	309.856
247.4000	-0.178409	310.148
247.2000	-0.185513	310.439
247.0000	-0.176208	310.733
246.8000	-0.157615	311.028
246.6000	-0.14336	311.325
246.4000	-0.164194	311.619
246.2000	-0.196335	311.917
246.0000	-0.194677	312.217
245.8000	-0.231424	312.52
245.6000	-0.274551	312.823
245.4000	-0.309919	313.128
245.2000	-0.349442	313.435
245.0000	-0.375908	313.745
244.8000	-0.413203	314.056
244.6000	-0.442058	314.368
244.4000	-0.471078	314.684
244.2000	-0.514043	315.002
244.0000	-0.539882	315.323
243.8000	-0.58346	315.647
243.6000	-0.611423	315.973
243.4000	-0.644233	316.303
243.2000	-0.67097	316.636
243.0000	-0.71578	316.969
242.8000	-0.747951	317.306
242.6000	-0.788647	317.645
242.4000	-0.835294	317.989
242.2000	-0.880388	318.337
242.0000	-0.955025	318.686
241.8000	-1.01421	319.044
241.6000	-1.10453	319.403
241.4000	-1.145	319.767
241.2000	-1.19236	320.135
241.0000	-1.24937	320.504
240.8000	-1.31163	320.881
240.6000	-1.35999	321.26
240.4000	-1.41526	321.644
240.2000	-1.51087	322.032
240.0000	-1.59909	322.426
239.8000	-1.69311	322.824
239.6000	-1.75483	323.23
239.4000	-1.81265	323.636
239.2000	-1.87771	324.048
239.0000	-1.94788	324.468
238.8000	-2.02692	324.89
238.6000	-2.13515	325.323
238.4000	-2.22959	325.76
238.2000	-2.32414	326.202
238.0000	-2.40676	326.651
237.8000	-2.49531	327.108
237.6000	-2.56822	327.571
237.4000	-2.6569	328.041
237.2000	-2.77508	328.521
237.0000	-2.88424	329.006
236.8000	-2.98021	329.498
236.6000	-3.0842	329.999
236.4000	-3.17169	330.505
236.2000	-3.26958	331.024
236.0000	-3.40929	331.548
235.8000	-3.54464	332.078
235.6000	-3.64367	332.619
235.4000	-3.77732	333.165
235.2000	-3.9202	333.721
235.0000	-3.99977	334.286
234.8000	-4.12888	334.859
234.6000	-4.2957	335.442
234.4000	-4.43688	336.037
234.2000	-4.56627	336.638
234.0000	-4.69706	337.254
233.8000	-4.86266	337.878
233.6000	-4.97127	338.511
233.4000	-5.12289	339.152
233.2000	-5.24925	339.803
233.0000	-5.39966	340.463
232.8000	-5.56992	341.13
232.6000	-5.75523	341.81
232.4000	-5.92346	342.497
232.2000	-6.11267	343.193
232.0000	-6.22917	343.897
231.8000	-6.38229	344.615
231.6000	-6.54646	345.339
231.4000	-6.67516	346.073
231.2000	-6.82039	346.817
231.0000	-6.97273	347.57
230.8000	-7.09679	348.327
230.6000	-7.20674	349.091
230.4000	-7.34194	349.858
230.2000	-7.52492	350.632
230.0000	-7.65268	351.409
229.8000	-7.81956	352.19
229.6000	-7.9829	352.975
229.4000	-8.12856	353.76
229.2000	-8.2395	354.551
229.0000	-8.41014	355.343
228.8000	-8.52203	356.136
228.6000	-8.64453	356.933
228.4000	-8.77644	357.723
228.2000	-8.86713	358.519
228.0000	-8.95431	359.318
227.8000	-9.03223	360.111
227.6000	-9.17541	360.904
227.4000	-9.29784	361.694
227.2000	-9.40104	362.482
227.0000	-9.52549	363.269
226.8000	-9.66358	364.053
226.6000	-9.79706	364.837
226.4000	-9.91864	365.616
226.2000	-10.0324	366.391
226.0000	-10.086	367.162
225.8000	-10.1781	367.932
225.6000	-10.2432	368.696
225.4000	-10.3331	369.456
225.2000	-10.4259	370.209
225.0000	-10.4635	370.955
224.8000	-10.5451	371.702
224.6000	-10.6389	372.438
224.4000	-10.7324	373.169
224.2000	-10.8495	373.895
224.0000	-10.9571	374.619
223.8000	-11.0371	375.34
223.6000	-11.1046	376.056
223.4000	-11.2066	376.773
223.2000	-11.2714	377.485
223.0000	-11.3405	378.191
222.8000	-11.3624	378.899
222.6000	-11.3831	379.601
222.4000	-11.4481	380.299
222.2000	-11.5003	380.996
222.0000	-11.5658	381.688
221.8000	-11.6406	382.38
221.6000	-11.7346	383.069
221.4000	-11.7885	383.753
221.2000	-11.8407	384.44
221.0000	-11.8941	385.121
220.8000	-11.9143	385.802
220.6000	-11.9344	386.482
220.4000	-11.8959	387.159
220.2000	-11.884	387.836
220.0000	-11.8812	388.511
219.8000	-11.8832	389.188
219.6000	-11.8543	389.866
219.4000	-11.8574	390.546
219.2000	-11.8895	391.222
219.0000	-11.8908	391.9
218.8000	-11.8974	392.578
218.6000	-11.9176	393.26
218.4000	-11.9171	393.944
218.2000	-11.952	394.624
218.0000	-11.9794	395.307
217.8000	-11.9534	396
217.6000	-11.9452	396.692
217.4000	-11.9366	397.389
217.2000	-11.9489	398.091
217.0000	-11.9161	398.795
216.8000	-11.874	399.507
216.6000	-11.8701	400.223
216.4000	-11.8707	400.947
216.2000	-11.8387	401.675
216.0000	-11.8447	402.414
215.8000	-11.8151	403.162
215.6000	-11.8127	403.917
215.4000	-11.8447	404.686
215.2000	-11.8993	405.462
215.0000	-11.9682	406.25
214.8000	-12.0206	407.05
214.6000	-12.0309	407.858
214.4000	-12.0513	408.683
214.2000	-12.0324	409.523
214.0000	-12.1179	410.376
213.8000	-12.2226	411.247
213.6000	-12.3548	412.129
213.4000	-12.4455	413.03
213.2000	-12.5415	413.951
213.0000	-12.6428	414.888
212.8000	-12.7971	415.843
212.6000	-12.8742	416.82
212.4000	-12.9681	417.815
212.2000	-13.1257	418.83
212.0000	-13.2723	419.864
211.8000	-13.4264	420.92
211.6000	-13.5926	422.002
211.4000	-13.7545	423.11
211.2000	-13.8793	424.239
211.0000	-14.0547	425.392
210.8000	-14.237	426.57
210.6000	-14.3337	427.776
210.4000	-14.523	429.012
210.2000	-14.7143	430.267
210.0000	-14.8213	431.551
209.8000	-15.0509	432.865
209.6000	-15.279	434.203
209.4000	-15.4785	435.577
209.2000	-15.6139	436.976
209.0000	-15.7218	438.407
208.8000	-15.7973	439.868
208.6000	-15.8489	441.363
208.4000	-15.8511	442.891
208.2000	-15.8836	444.448
208.0000	-16.0485	446.04
207.8000	-16.1282	447.666
207.6000	-16.2948	449.329
207.4000	-16.5132	451.027
207.2000	-16.4625	452.76
207.0000	-16.5359	454.536
206.8000	-16.5243	456.35
206.6000	-16.5764	458.205
206.4000	-16.5874	460.107
206.2000	-16.4493	462.049
206.0000	-16.4214	464.035
205.8000	-16.3853	466.071
205.6000	-16.3072	468.162
205.4000	-16.0583	470.307
205.2000	-15.9404	472.504
205.0000	-15.7024	474.765
204.8000	-15.4965	477.08
204.6000	-15.2566	479.469
204.4000	-15.0367	481.92
204.2000	-14.8648	484.439
204.0000	-14.5649	487.034
203.8000	-14.3232	489.702
203.6000	-13.9165	492.458
203.4000	-13.484	495.299
203.2000	-12.9589	498.231
203.0000	-12.4644	501.253
202.8000	-12.1878	504.371
202.6000	-11.7634	507.591
202.4000	-11.1672	510.921
202.2000	-10.7125	514.363
202.0000	-10.3269	517.925
201.8000	-9.67983	521.612
201.6000	-9.18901	525.428
201.4000	-8.70676	529.371
201.2000	-8.22774	533.451
201.0000	-7.49319	537.674
200.8000	-6.45691	542.036
200.6000	-5.97834	546.543
200.4000	-5.40019	551.201
200.2000	-4.74161	556.008
200.0000	-3.79149	560.956
199.8000	-2.55393	566.043
199.6000	-1.80215	571.271
199.4000	-1.4119	576.622
199.2000	-0.848783	582.088
199.0000	-0.271313	587.654
198.8000	0.216082	593.304
198.6000	0.5089	599.017
198.4000	0.754471	604.774
198.2000	1.03766	610.554
198.0000	1.50407	616.33
197.8000	1.94927	622.095
197.6000	2.3509	627.816
197.4000	3.18407	633.481
197.2000	3.75554	639.067
197.0000	3.70357	644.562
196.8000	4.07715	649.951
196.6000	4.23267	655.218
196.4000	4.515	660.357
196.2000	5.03622	665.358
196.0000	5.57972	670.212
195.8000	5.42996	674.904
195.6000	5.44538	679.433
195.4000	5.41143	683.785
195.2000	5.18721	687.959
195.0000	5.14693	691.941
194.8000	5.21946	695.73
194.6000	5.01037	699.318
194.4000	4.44909	702.695
194.2000	4.28552	705.865
194.0000	4.13729	708.816
193.8000	3.98665	711.542
193.6000	3.61221	714.045
193.4000	3.3613	716.325
193.2000	2.32964	718.38
193.0000	1.53569	720.215
192.8000	1.46849	721.838
192.6000	1.10349	723.253
192.4000	0.516432	724.472
192.2000	0.630023	725.509
192.0000	0.827641	726.379
191.8000	0.559965	727.095
191.6000	0.272576	727.676
191.4000	0.343495	728.141
191.2000	0.206903	728.503
191.0000	0.381346	728.784
190.8000	-0.315032	728.995
190.6000	-0.377927	729.154
190.4000	0.004743	729.273
190.2000	0.0947224	729.359
190.0000	0.551524	729.417

##### Extended Information
[Comments]
Sample name	1kx8_006
Comment
User
Division
Company	EPFL

[Detailed Information]
Creation date	27.04.2017 17:59

Data array type	Linear data array * 2
Horizontal axis	Wavelength [nm]
Vertical axis(1)	CD [mdeg]
Vertical axis(2)	HT [V]
Start	250 nm
End	190 nm
Data interval	0.2 nm
Data points	301     

[Measurement Information]
Instrument Name	CD-Spectrometer
Model Name	J-815
Serial No.	A007961168

Accessory	PFD-425S
Accessory S/N	A001061180
  Temperature	20.01 C
  Control Sonsor	Holder
  Monitor Sensor	Holder
  Cell Length	10 mm

Photometric Mode	CD, HT
Measure Range	250 - 190 nm
Data pitch	0.2 nm
Sensitivity	Standard
D.I.T.	8 sec
Bandwidth	1.00 nm
Start Mode	Immediately
Scanning Speed	50 nm/min
Baseline Correction	None
Shutter Control	Auto
PMT Voltage	Auto
Accumulations	2
End Temperature.	20 C
Start Temperature.	90 C
Temperature. Interval	5 C
Ramp Rate	5 C/min

