TITLE	Mota_1kx8_d06_TCEP_melting
DATA TYPE	
ORIGIN	JASCO
OWNER	
DATE	17/07/12
TIME	13:24:57
SPECTROMETER/DATA SYSTEM	
LOCALE	2055
RESOLUTION	
DELTAX	-0.2
XUNITS	NANOMETERS
YUNITS	CD [mdeg]
Y2UNITS	HT [V]
FIRSTX	  250.0000
LASTX	  195.0000
NPOINTS	     276
FIRSTY	    -0.10186
MAXY	     4.08699
MINY	   -12.35586
XYDATA
250.0000	-0.10186	306.5
249.8000	-0.128816	306.787
249.6000	-0.161737	307.076
249.4000	-0.175345	307.37
249.2000	-0.183985	307.663
249.0000	-0.206978	307.96
248.8000	-0.226665	308.259
248.6000	-0.23293	308.556
248.4000	-0.243583	308.858
248.2000	-0.268157	309.157
248.0000	-0.27871	309.461
247.8000	-0.305585	309.768
247.6000	-0.332535	310.076
247.4000	-0.341597	310.392
247.2000	-0.322659	310.706
247.0000	-0.340274	311.023
246.8000	-0.343533	311.344
246.6000	-0.338141	311.664
246.4000	-0.33423	311.983
246.2000	-0.367015	312.308
246.0000	-0.407524	312.637
245.8000	-0.424193	312.968
245.6000	-0.447218	313.305
245.4000	-0.467664	313.644
245.2000	-0.49688	313.989
245.0000	-0.533112	314.34
244.8000	-0.533841	314.69
244.6000	-0.582231	315.044
244.4000	-0.617839	315.407
244.2000	-0.657349	315.774
244.0000	-0.678722	316.145
243.8000	-0.715723	316.522
243.6000	-0.794314	316.907
243.4000	-0.861973	317.299
243.2000	-0.882116	317.7
243.0000	-0.897455	318.104
242.8000	-0.929082	318.516
242.6000	-0.977134	318.935
242.4000	-1.02111	319.361
242.2000	-1.094	319.793
242.0000	-1.14976	320.235
241.8000	-1.23518	320.682
241.6000	-1.30785	321.143
241.4000	-1.37319	321.607
241.2000	-1.43036	322.084
241.0000	-1.49482	322.566
240.8000	-1.5622	323.058
240.6000	-1.64522	323.561
240.4000	-1.73688	324.076
240.2000	-1.8161	324.6
240.0000	-1.91581	325.136
239.8000	-2.03371	325.684
239.6000	-2.12614	326.244
239.4000	-2.19632	326.813
239.2000	-2.28852	327.397
239.0000	-2.36009	327.995
238.8000	-2.45269	328.604
238.6000	-2.54345	329.229
238.4000	-2.66794	329.866
238.2000	-2.7881	330.521
238.0000	-2.88873	331.192
237.8000	-2.96328	331.879
237.6000	-3.05317	332.582
237.4000	-3.15278	333.302
237.2000	-3.23371	334.04
237.0000	-3.31594	334.796
236.8000	-3.41788	335.573
236.6000	-3.5216	336.368
236.4000	-3.62191	337.184
236.2000	-3.72903	338.019
236.0000	-3.82728	338.874
235.8000	-3.94393	339.75
235.6000	-4.02237	340.648
235.4000	-4.11645	341.573
235.2000	-4.19037	342.521
235.0000	-4.25145	343.493
234.8000	-4.35572	344.492
234.6000	-4.41722	345.513
234.4000	-4.52257	346.566
234.2000	-4.6522	347.644
234.0000	-4.78856	348.751
233.8000	-4.88103	349.888
233.6000	-4.99192	351.049
233.4000	-5.10224	352.242
233.2000	-5.20065	353.464
233.0000	-5.32942	354.713
232.8000	-5.42618	355.992
232.6000	-5.51772	357.305
232.4000	-5.62169	358.65
232.2000	-5.71285	360.027
232.0000	-5.85024	361.434
231.8000	-5.94752	362.876
231.6000	-6.06783	364.35
231.4000	-6.19349	365.858
231.2000	-6.28263	367.396
231.0000	-6.37654	368.966
230.8000	-6.50864	370.565
230.6000	-6.66064	372.19
230.4000	-6.80417	373.847
230.2000	-6.90655	375.528
230.0000	-7.02248	377.237
229.8000	-7.17936	378.968
229.6000	-7.32875	380.727
229.4000	-7.4671	382.515
229.2000	-7.5861	384.327
229.0000	-7.7648	386.16
228.8000	-7.88284	388.016
228.6000	-8.01184	389.89
228.4000	-8.20556	391.785
228.2000	-8.27377	393.698
228.0000	-8.38101	395.633
227.8000	-8.5647	397.585
227.6000	-8.66742	399.551
227.4000	-8.78967	401.537
227.2000	-8.95543	403.529
227.0000	-9.00688	405.543
226.8000	-9.08877	407.566
226.6000	-9.21288	409.606
226.4000	-9.32576	411.657
226.2000	-9.46071	413.717
226.0000	-9.58916	415.786
225.8000	-9.68447	417.859
225.6000	-9.86606	419.945
225.4000	-9.9489	422.032
225.2000	-10.0282	424.128
225.0000	-10.0227	426.226
224.8000	-10.0317	428.332
224.6000	-10.1674	430.441
224.4000	-10.2958	432.553
224.2000	-10.3779	434.674
224.0000	-10.5577	436.801
223.8000	-10.6309	438.93
223.6000	-10.7254	441.064
223.4000	-10.7859	443.204
223.2000	-10.8808	445.351
223.0000	-10.8863	447.505
222.8000	-10.9222	449.663
222.6000	-11.027	451.823
222.4000	-11.0418	453.984
222.2000	-11.0778	456.15
222.0000	-11.1642	458.321
221.8000	-11.2521	460.493
221.6000	-11.4071	462.671
221.4000	-11.5904	464.85
221.2000	-11.6173	467.029
221.0000	-11.6546	469.214
220.8000	-11.6521	471.397
220.6000	-11.585	473.59
220.4000	-11.6838	475.787
220.2000	-11.6715	477.981
220.0000	-11.652	480.179
219.8000	-11.6456	482.377
219.6000	-11.6698	484.575
219.4000	-11.6516	486.779
219.2000	-11.5832	488.985
219.0000	-11.6599	491.191
218.8000	-11.6829	493.401
218.6000	-11.7497	495.615
218.4000	-11.7496	497.83
218.2000	-11.9756	500.041
218.0000	-12.0378	502.258
217.8000	-12.0998	504.478
217.6000	-12.1082	506.698
217.4000	-12.1838	508.916
217.2000	-12.1567	511.139
217.0000	-12.1789	513.362
216.8000	-12.2651	515.587
216.6000	-12.2478	517.81
216.4000	-12.2885	520.03
216.2000	-12.3559	522.245
216.0000	-12.3196	524.46
215.8000	-12.2025	526.678
215.6000	-12.1996	528.889
215.4000	-12.2636	531.112
215.2000	-12.3064	533.336
215.0000	-12.2044	535.574
214.8000	-12.2143	537.825
214.6000	-12.298	540.085
214.4000	-12.0411	542.366
214.2000	-11.9167	544.654
214.0000	-11.7157	546.945
213.8000	-11.4613	549.246
213.6000	-11.5558	551.547
213.4000	-11.6415	553.85
213.2000	-11.6694	556.151
213.0000	-11.5568	558.451
212.8000	-11.5824	560.743
212.6000	-11.5934	563.033
212.4000	-11.5398	565.318
212.2000	-11.4365	567.603
212.0000	-11.3216	569.886
211.8000	-11.3925	572.17
211.6000	-11.4044	574.461
211.4000	-11.2391	576.755
211.2000	-11.2828	579.046
211.0000	-11.2733	581.337
210.8000	-11.2613	583.638
210.6000	-11.0691	585.942
210.4000	-11.1298	588.258
210.2000	-11.0678	590.585
210.0000	-11.0455	592.93
209.8000	-10.7094	595.288
209.6000	-10.6583	597.658
209.4000	-10.5624	600.037
209.2000	-10.9774	602.422
209.0000	-11.1653	604.817
208.8000	-11.2992	607.217
208.6000	-11.3909	609.613
208.4000	-11.5097	612.005
208.2000	-11.3441	614.386
208.0000	-11.0001	616.754
207.8000	-10.8432	619.103
207.6000	-10.7912	621.431
207.4000	-10.756	623.741
207.2000	-11.1423	626.027
207.0000	-11.0577	628.296
206.8000	-10.6814	630.542
206.6000	-10.2816	632.774
206.4000	-9.97295	634.987
206.2000	-9.55182	637.176
206.0000	-9.23695	639.334
205.8000	-9.01452	641.456
205.6000	-8.65799	643.556
205.4000	-8.35598	645.618
205.2000	-8.14466	647.644
205.0000	-7.34619	649.646
204.8000	-6.67702	651.556
204.6000	-6.24911	653.408
204.4000	-6.07987	655.223
204.2000	-5.57606	657.008
204.0000	-5.03558	658.768
203.8000	-4.18068	660.499
203.6000	-3.65899	662.19
203.4000	-3.19951	663.835
203.2000	-2.58351	665.425
203.0000	-2.27565	666.951
202.8000	-2.00929	668.406
202.6000	-1.27735	669.781
202.4000	-0.88649	671.071
202.2000	-0.19236	672.29
202.0000	0.380347	673.442
201.8000	0.675965	674.529
201.6000	0.753294	675.556
201.4000	1.17626	676.534
201.2000	1.37147	677.461
201.0000	1.68349	678.34
200.8000	2.25641	679.163
200.6000	2.50648	679.932
200.4000	3.05441	680.651
200.2000	3.65365	681.322
200.0000	3.67715	681.945
199.8000	4.08107	682.522
199.6000	4.08699	683.058
199.4000	3.6093	683.557
199.2000	3.21128	684.019
199.0000	3.56721	684.435
198.8000	3.36755	684.799
198.6000	3.47946	685.134
198.4000	3.10875	685.397
198.2000	2.40706	685.671
198.0000	2.29802	685.944
197.8000	3.0898	686.191
197.6000	3.18274	686.388
197.4000	3.26307	686.521
197.2000	2.75641	686.579
197.0000	2.31659	686.562
196.8000	2.2663	686.477
196.6000	1.6216	686.33
196.4000	1.37616	686.141
196.2000	0.824533	685.929
196.0000	0.681843	685.718
195.8000	0.686398	685.511
195.6000	0.849533	685.306
195.4000	0.848969	685.093
195.2000	1.00174	684.865
195.0000	1.23995	684.613

##### Extended Information
[Comments]
Sample name	Mota_1kx8_d06_TCEP_melting
Comment	test
User
Division
Company	EPFL

[Detailed Information]
Creation date	12.07.2017 13:24

Data array type	Linear data array * 2
Horizontal axis	Wavelength [nm]
Vertical axis(1)	CD [mdeg]
Vertical axis(2)	HT [V]
Start	250 nm
End	195 nm
Data interval	0.2 nm
Data points	276     

[Measurement Information]
Instrument Name	CD-Spectrometer
Model Name	J-815
Serial No.	A007961168

Accessory	PFD-425S
Accessory S/N	A001061180
  Temperature	24.98 C
  Control Sonsor	Holder
  Monitor Sensor	Holder
  Cell Length	10 mm

Photometric Mode	CD, HT
Measure Range	250 - 195 nm
Data pitch	0.2 nm
Sensitivity	Standard
D.I.T.	8 sec
Bandwidth	1.00 nm
Start Mode	Immediately
Scanning Speed	50 nm/min
Baseline Correction	None
Shutter Control	Auto
PMT Voltage	Auto
Accumulations	2
Solvent	phosphate
Concentration	20 umol/L
End Temperature.	25 C
Start Temperature.	90 C
Temperature. Interval	5 C
Ramp Rate	5 C/min

