TITLE	Mota_1kx8_d06_TCEP_melting
DATA TYPE	
ORIGIN	JASCO
OWNER	
DATE	17/07/12
TIME	13:24:57
SPECTROMETER/DATA SYSTEM	
LOCALE	2055
RESOLUTION	
DELTAX	-0.2
XUNITS	NANOMETERS
YUNITS	CD [mdeg]
Y2UNITS	HT [V]
FIRSTX	  250.0000
LASTX	  195.0000
NPOINTS	     276
FIRSTY	    -0.06825
MAXY	     5.35143
MINY	   -17.57461
XYDATA
250.0000	-0.0682516	306.707
249.8000	-0.0826902	306.988
249.6000	-0.0734594	307.271
249.4000	-0.0835913	307.553
249.2000	-0.122206	307.839
249.0000	-0.143667	308.125
248.8000	-0.15762	308.412
248.6000	-0.179324	308.701
248.4000	-0.22459	308.988
248.2000	-0.261274	309.282
248.0000	-0.291926	309.577
247.8000	-0.344528	309.874
247.6000	-0.362329	310.172
247.4000	-0.381773	310.471
247.2000	-0.422942	310.775
247.0000	-0.450484	311.076
246.8000	-0.482095	311.384
246.6000	-0.493998	311.688
246.4000	-0.506042	311.994
246.2000	-0.525872	312.304
246.0000	-0.561538	312.616
245.8000	-0.60417	312.935
245.6000	-0.638269	313.255
245.4000	-0.654746	313.578
245.2000	-0.665265	313.909
245.0000	-0.703597	314.241
244.8000	-0.716932	314.579
244.6000	-0.741064	314.924
244.4000	-0.765592	315.27
244.2000	-0.805893	315.622
244.0000	-0.84899	315.974
243.8000	-0.885898	316.333
243.6000	-0.908714	316.698
243.4000	-0.940773	317.07
243.2000	-1.00417	317.448
243.0000	-1.09141	317.832
242.8000	-1.15558	318.224
242.6000	-1.18937	318.621
242.4000	-1.23729	319.023
242.2000	-1.30244	319.431
242.0000	-1.37499	319.846
241.8000	-1.41739	320.267
241.6000	-1.46886	320.701
241.4000	-1.52499	321.137
241.2000	-1.59175	321.585
241.0000	-1.66411	322.04
240.8000	-1.77786	322.505
240.6000	-1.87059	322.978
240.4000	-1.96115	323.46
240.2000	-2.06035	323.95
240.0000	-2.15678	324.452
239.8000	-2.27205	324.966
239.6000	-2.38838	325.49
239.4000	-2.50487	326.028
239.2000	-2.58378	326.577
239.0000	-2.65799	327.138
238.8000	-2.78923	327.711
238.6000	-2.93951	328.298
238.4000	-3.01762	328.898
238.2000	-3.14173	329.514
238.0000	-3.26233	330.139
237.8000	-3.36156	330.784
237.6000	-3.46123	331.444
237.4000	-3.59477	332.122
237.2000	-3.72293	332.817
237.0000	-3.86816	333.529
236.8000	-4.04208	334.26
236.6000	-4.1953	335.015
236.4000	-4.32046	335.784
236.2000	-4.45031	336.57
236.0000	-4.63737	337.378
235.8000	-4.81474	338.209
235.6000	-4.95348	339.061
235.4000	-5.04803	339.935
235.2000	-5.19977	340.832
235.0000	-5.36563	341.751
234.8000	-5.51897	342.698
234.6000	-5.63054	343.671
234.4000	-5.75993	344.67
234.2000	-5.92035	345.691
234.0000	-6.04959	346.741
233.8000	-6.16488	347.816
233.6000	-6.31859	348.926
233.4000	-6.47595	350.061
233.2000	-6.60305	351.228
233.0000	-6.76067	352.418
232.8000	-6.9058	353.635
232.6000	-7.0476	354.88
232.4000	-7.2483	356.152
232.2000	-7.41938	357.458
232.0000	-7.5975	358.793
231.8000	-7.76204	360.161
231.6000	-7.94423	361.558
231.4000	-8.11858	362.985
231.2000	-8.36958	364.434
231.0000	-8.63456	365.915
230.8000	-8.87739	367.423
230.6000	-9.06732	368.955
230.4000	-9.20788	370.515
230.2000	-9.37279	372.1
230.0000	-9.54128	373.702
229.8000	-9.72576	375.327
229.6000	-9.86647	376.979
229.4000	-9.98084	378.648
229.2000	-10.1371	380.339
229.0000	-10.3505	382.051
228.8000	-10.5505	383.781
228.6000	-10.6941	385.526
228.4000	-10.8832	387.286
228.2000	-11.0788	389.066
228.0000	-11.333	390.853
227.8000	-11.6383	392.656
227.6000	-11.8643	394.47
227.4000	-12.053	396.303
227.2000	-12.2479	398.145
227.0000	-12.364	399.999
226.8000	-12.4874	401.863
226.6000	-12.6318	403.735
226.4000	-12.8516	405.615
226.2000	-12.9824	407.497
226.0000	-13.1696	409.386
225.8000	-13.3663	411.28
225.6000	-13.5405	413.182
225.4000	-13.6993	415.084
225.2000	-13.9136	416.988
225.0000	-14.0519	418.894
224.8000	-14.2113	420.805
224.6000	-14.3184	422.722
224.4000	-14.4067	424.641
224.2000	-14.4729	426.561
224.0000	-14.5239	428.49
223.8000	-14.5704	430.417
223.6000	-14.7203	432.348
223.4000	-14.8454	434.284
223.2000	-14.8798	436.222
223.0000	-14.8577	438.167
222.8000	-14.8382	440.117
222.6000	-14.8862	442.069
222.4000	-14.7969	444.016
222.2000	-14.8965	445.97
222.0000	-15.0765	447.933
221.8000	-15.2171	449.898
221.6000	-15.3205	451.864
221.4000	-15.3703	453.837
221.2000	-15.3143	455.809
221.0000	-15.3122	457.792
220.8000	-15.3159	459.774
220.6000	-15.3496	461.762
220.4000	-15.4255	463.752
220.2000	-15.579	465.741
220.0000	-15.692	467.735
219.8000	-15.8034	469.732
219.6000	-15.8163	471.738
219.4000	-15.721	473.755
219.2000	-15.729	475.77
219.0000	-15.799	477.789
218.8000	-15.6514	479.815
218.6000	-15.4285	481.847
218.4000	-15.2982	483.884
218.2000	-15.2922	485.925
218.0000	-15.2874	487.968
217.8000	-15.2287	490.013
217.6000	-15.2574	492.077
217.4000	-15.3341	494.136
217.2000	-15.3952	496.202
217.0000	-15.3713	498.268
216.8000	-15.292	500.341
216.6000	-15.3253	502.426
216.4000	-15.4122	504.513
216.2000	-15.563	506.61
216.0000	-15.5825	508.713
215.8000	-15.5887	510.83
215.6000	-15.6577	512.956
215.4000	-15.6219	515.089
215.2000	-15.6541	517.227
215.0000	-15.6868	519.384
214.8000	-15.7005	521.549
214.6000	-15.7969	523.723
214.4000	-15.7522	525.914
214.2000	-15.8675	528.111
214.0000	-15.8976	530.318
213.8000	-15.8747	532.54
213.6000	-15.709	534.78
213.4000	-15.6365	537.034
213.2000	-15.5609	539.301
213.0000	-15.4468	541.58
212.8000	-15.7613	543.87
212.6000	-16.0955	546.18
212.4000	-15.9389	548.509
212.2000	-15.9764	550.846
212.0000	-16.3452	553.196
211.8000	-16.4637	555.556
211.6000	-16.5383	557.93
211.4000	-16.821	560.321
211.2000	-16.8782	562.724
211.0000	-17.0784	565.139
210.8000	-17.0252	567.571
210.6000	-17.1111	570.015
210.4000	-17.285	572.481
210.2000	-17.5746	574.952
210.0000	-17.4188	577.438
209.8000	-17.2104	579.939
209.6000	-17.0104	582.446
209.4000	-17.2113	584.967
209.2000	-17.1825	587.498
209.0000	-16.9708	590.043
208.8000	-16.862	592.607
208.6000	-16.6396	595.179
208.4000	-16.3446	597.761
208.2000	-16.3117	600.355
208.0000	-16.1779	602.96
207.8000	-15.8034	605.57
207.6000	-15.4442	608.188
207.4000	-15.1362	610.817
207.2000	-14.777	613.448
207.0000	-14.6805	616.078
206.8000	-14.6865	618.705
206.6000	-14.7458	621.338
206.4000	-14.7616	623.969
206.2000	-14.1106	626.606
206.0000	-13.2454	629.235
205.8000	-12.251	631.855
205.6000	-11.3893	634.466
205.4000	-10.6551	637.065
205.2000	-10.2822	639.645
205.0000	-10.0946	642.21
204.8000	-9.43111	644.761
204.6000	-9.18359	647.293
204.4000	-8.7651	649.803
204.2000	-8.67922	652.289
204.0000	-8.10912	654.745
203.8000	-7.61922	657.165
203.6000	-7.23591	659.542
203.4000	-7.19687	661.871
203.2000	-7.48309	664.145
203.0000	-7.26338	666.361
202.8000	-6.27817	668.518
202.6000	-5.43964	670.608
202.4000	-5.4484	672.626
202.2000	-4.77551	674.569
202.0000	-4.35164	676.44
201.8000	-4.03196	678.232
201.6000	-3.64746	679.947
201.4000	-2.76425	681.585
201.2000	-2.06871	683.139
201.0000	-1.83463	684.614
200.8000	-1.82312	686.007
200.6000	-1.6029	687.323
200.4000	-0.629051	688.562
200.2000	0.145539	689.726
200.0000	0.489733	690.809
199.8000	1.11737	691.817
199.6000	1.32645	692.744
199.4000	1.29535	693.594
199.2000	1.1231	694.376
199.0000	1.00112	695.088
198.8000	0.994754	695.731
198.6000	0.857891	696.309
198.4000	1.42886	696.825
198.2000	1.15299	697.272
198.0000	1.73833	697.658
197.8000	2.00543	697.975
197.6000	2.43361	698.23
197.4000	2.75706	698.426
197.2000	2.72704	698.565
197.0000	3.03543	698.653
196.8000	3.62571	698.693
196.6000	4.39777	698.687
196.4000	4.93814	698.632
196.2000	5.35143	698.531
196.0000	4.39194	698.382
195.8000	4.0588	698.195
195.6000	3.93698	697.976
195.4000	4.10576	697.727
195.2000	4.18002	697.456
195.0000	4.59839	697.171

##### Extended Information
[Comments]
Sample name	Mota_1kx8_d06_TCEP_melting
Comment	test
User
Division
Company	EPFL

[Detailed Information]
Creation date	12.07.2017 13:24

Data array type	Linear data array * 2
Horizontal axis	Wavelength [nm]
Vertical axis(1)	CD [mdeg]
Vertical axis(2)	HT [V]
Start	250 nm
End	195 nm
Data interval	0.2 nm
Data points	276     

[Measurement Information]
Instrument Name	CD-Spectrometer
Model Name	J-815
Serial No.	A007961168

Accessory	PFD-425S
Accessory S/N	A001061180
  Temperature	24.98 C
  Control Sonsor	Holder
  Monitor Sensor	Holder
  Cell Length	10 mm

Photometric Mode	CD, HT
Measure Range	250 - 195 nm
Data pitch	0.2 nm
Sensitivity	Standard
D.I.T.	8 sec
Bandwidth	1.00 nm
Start Mode	Immediately
Scanning Speed	50 nm/min
Baseline Correction	None
Shutter Control	Auto
PMT Voltage	Auto
Accumulations	2
Solvent	phosphate
Concentration	20 umol/L
End Temperature.	25 C
Start Temperature.	90 C
Temperature. Interval	5 C
Ramp Rate	5 C/min

