TITLE	Mota_1kx8_d07_tcep
DATA TYPE	
ORIGIN	JASCO
OWNER	
DATE	17/08/08
TIME	17:09:08
SPECTROMETER/DATA SYSTEM	
LOCALE	2055
RESOLUTION	
DELTAX	-0.2
XUNITS	NANOMETERS
YUNITS	CD [mdeg]
Y2UNITS	HT [V]
FIRSTX	  250.0000
LASTX	  195.0000
NPOINTS	     276
FIRSTY	    -0.03456
MAXY	     2.56314
MINY	    -8.75290
XYDATA
250.0000	-0.0345577	310.435
249.8000	-0.0453121	310.738
249.6000	-0.0443665	311.042
249.4000	-0.0395847	311.351
249.2000	-0.0557947	311.661
249.0000	-0.0764727	311.972
248.8000	-0.120583	312.284
248.6000	-0.130135	312.597
248.4000	-0.170388	312.916
248.2000	-0.207532	313.235
248.0000	-0.21857	313.557
247.8000	-0.242269	313.878
247.6000	-0.2692	314.203
247.4000	-0.305229	314.53
247.2000	-0.339706	314.861
247.0000	-0.353877	315.188
246.8000	-0.366644	315.523
246.6000	-0.391095	315.86
246.4000	-0.426388	316.198
246.2000	-0.497736	316.54
246.0000	-0.523325	316.887
245.8000	-0.56826	317.234
245.6000	-0.610551	317.586
245.4000	-0.647029	317.943
245.2000	-0.686404	318.303
245.0000	-0.691905	318.672
244.8000	-0.723976	319.04
244.6000	-0.751076	319.415
244.4000	-0.808995	319.794
244.2000	-0.843301	320.18
244.0000	-0.890881	320.572
243.8000	-0.970556	320.968
243.6000	-1.06757	321.374
243.4000	-1.14987	321.784
243.2000	-1.24362	322.199
243.0000	-1.3035	322.62
242.8000	-1.37726	323.047
242.6000	-1.447	323.481
242.4000	-1.52139	323.923
242.2000	-1.60111	324.372
242.0000	-1.64251	324.834
241.8000	-1.72819	325.298
241.6000	-1.80855	325.773
241.4000	-1.90326	326.257
241.2000	-1.97563	326.75
241.0000	-2.05118	327.253
240.8000	-2.14845	327.763
240.6000	-2.22666	328.281
240.4000	-2.30859	328.81
240.2000	-2.40921	329.348
240.0000	-2.53218	329.898
239.8000	-2.66168	330.461
239.6000	-2.73229	331.033
239.4000	-2.81633	331.614
239.2000	-2.89388	332.209
239.0000	-2.97017	332.814
238.8000	-3.07729	333.436
238.6000	-3.16868	334.068
238.4000	-3.27823	334.715
238.2000	-3.40687	335.375
238.0000	-3.51506	336.045
237.8000	-3.61609	336.732
237.6000	-3.70912	337.434
237.4000	-3.79738	338.15
237.2000	-3.88049	338.883
237.0000	-3.95461	339.626
236.8000	-4.03457	340.385
236.6000	-4.13969	341.164
236.4000	-4.28734	341.957
236.2000	-4.4347	342.766
236.0000	-4.58215	343.592
235.8000	-4.72593	344.432
235.6000	-4.83281	345.29
235.4000	-4.95889	346.162
235.2000	-5.10278	347.049
235.0000	-5.23692	347.956
234.8000	-5.37287	348.878
234.6000	-5.49188	349.818
234.4000	-5.6382	350.775
234.2000	-5.73975	351.75
234.0000	-5.82349	352.747
233.8000	-5.9037	353.762
233.6000	-6.06083	354.793
233.4000	-6.12479	355.842
233.2000	-6.20561	356.907
233.0000	-6.30207	357.987
232.8000	-6.43823	359.081
232.6000	-6.58149	360.189
232.4000	-6.73661	361.315
232.2000	-6.81807	362.458
232.0000	-6.88885	363.618
231.8000	-7.02111	364.793
231.6000	-7.14515	365.985
231.4000	-7.26573	367.201
231.2000	-7.36502	368.428
231.0000	-7.47309	369.671
230.8000	-7.59915	370.928
230.6000	-7.70745	372.193
230.4000	-7.86163	373.482
230.2000	-7.98796	374.779
230.0000	-8.11691	376.091
229.8000	-8.18769	377.412
229.6000	-8.28804	378.743
229.4000	-8.37493	380.087
229.2000	-8.42717	381.442
229.0000	-8.45767	382.804
228.8000	-8.4649	384.173
228.6000	-8.49154	385.55
228.4000	-8.48576	386.933
228.2000	-8.53639	388.328
228.0000	-8.54576	389.731
227.8000	-8.52278	391.145
227.6000	-8.5449	392.56
227.4000	-8.56666	393.981
227.2000	-8.66093	395.406
227.0000	-8.72263	396.834
226.8000	-8.7529	398.273
226.6000	-8.74784	399.715
226.4000	-8.71927	401.162
226.2000	-8.69244	402.613
226.0000	-8.60935	404.074
225.8000	-8.56403	405.535
225.6000	-8.49949	406.999
225.4000	-8.47687	408.466
225.2000	-8.44493	409.933
225.0000	-8.43465	411.394
224.8000	-8.4235	412.854
224.6000	-8.41154	414.317
224.4000	-8.39234	415.775
224.2000	-8.29963	417.235
224.0000	-8.19882	418.701
223.8000	-8.08188	420.161
223.6000	-7.97954	421.626
223.4000	-7.90527	423.083
223.2000	-7.84041	424.545
223.0000	-7.73168	426.006
222.8000	-7.55328	427.462
222.6000	-7.41083	428.916
222.4000	-7.3193	430.363
222.2000	-7.24127	431.818
222.0000	-7.14666	433.272
221.8000	-7.03313	434.726
221.6000	-6.95232	436.17
221.4000	-6.93465	437.611
221.2000	-6.923	439.05
221.0000	-6.83723	440.485
220.8000	-6.6933	441.92
220.6000	-6.60613	443.35
220.4000	-6.4232	444.773
220.2000	-6.37186	446.187
220.0000	-6.29227	447.599
219.8000	-6.20924	449.003
219.6000	-6.01348	450.408
219.4000	-5.8286	451.807
219.2000	-5.70713	453.197
219.0000	-5.60379	454.585
218.8000	-5.507	455.957
218.6000	-5.40167	457.328
218.4000	-5.2035	458.697
218.2000	-4.95922	460.062
218.0000	-4.73155	461.425
217.8000	-4.6177	462.779
217.6000	-4.41155	464.13
217.4000	-4.28539	465.472
217.2000	-4.26054	466.807
217.0000	-4.19419	468.134
216.8000	-4.13638	469.463
216.6000	-4.03829	470.781
216.4000	-3.87808	472.095
216.2000	-3.8412	473.408
216.0000	-3.81918	474.716
215.8000	-3.75154	476.027
215.6000	-3.74755	477.33
215.4000	-3.73346	478.629
215.2000	-3.74673	479.923
215.0000	-3.81404	481.216
214.8000	-3.68767	482.51
214.6000	-3.62292	483.802
214.4000	-3.60311	485.093
214.2000	-3.59793	486.377
214.0000	-3.53124	487.664
213.8000	-3.49525	488.952
213.6000	-3.3964	490.239
213.4000	-3.2694	491.53
213.2000	-3.35687	492.817
213.0000	-3.3699	494.105
212.8000	-3.39133	495.393
212.6000	-3.42966	496.685
212.4000	-3.45942	497.977
212.2000	-3.55319	499.277
212.0000	-3.45641	500.574
211.8000	-3.37408	501.876
211.6000	-3.29809	503.174
211.4000	-3.35042	504.482
211.2000	-3.28886	505.788
211.0000	-3.41005	507.09
210.8000	-3.36115	508.403
210.6000	-3.29902	509.715
210.4000	-3.16538	511.032
210.2000	-2.97493	512.355
210.0000	-2.74523	513.68
209.8000	-2.74333	515.007
209.6000	-2.70107	516.336
209.4000	-2.64985	517.66
209.2000	-2.47809	518.985
209.0000	-2.31148	520.311
208.8000	-2.12117	521.638
208.6000	-1.95859	522.967
208.4000	-1.72288	524.295
208.2000	-1.41943	525.625
208.0000	-1.15331	526.953
207.8000	-1.13973	528.285
207.6000	-1.02325	529.607
207.4000	-0.913246	530.935
207.2000	-0.786199	532.26
207.0000	-0.307732	533.582
206.8000	-0.000164795	534.902
206.6000	0.224646	536.22
206.4000	0.305529	537.532
206.2000	0.0937479	538.842
206.0000	0.24006	540.153
205.8000	0.410793	541.459
205.6000	0.562906	542.762
205.4000	0.632014	544.065
205.2000	0.463145	545.359
205.0000	0.459089	546.654
204.8000	0.38046	547.935
204.6000	0.45568	549.223
204.4000	0.728347	550.507
204.2000	0.82502	551.783
204.0000	0.799568	553.065
203.8000	0.809237	554.334
203.6000	0.801326	555.604
203.4000	0.69646	556.86
203.2000	0.794206	558.122
203.0000	0.917029	559.381
202.8000	0.840613	560.638
202.6000	0.562612	561.89
202.4000	0.279401	563.136
202.2000	0.165108	564.375
202.0000	-0.080374	565.612
201.8000	-0.122251	566.846
201.6000	-0.207039	568.073
201.4000	-0.154341	569.292
201.2000	-0.0267069	570.505
201.0000	0.149317	571.716
200.8000	0.321127	572.915
200.6000	0.413752	574.108
200.4000	-0.0270094	575.286
200.2000	-0.367125	576.454
200.0000	-0.54456	577.616
199.8000	-0.541755	578.767
199.6000	-0.560056	579.906
199.4000	-0.561193	581.037
199.2000	-0.368771	582.15
199.0000	-0.309355	583.247
198.8000	0.0606709	584.324
198.6000	0.455627	585.389
198.4000	0.472803	586.43
198.2000	0.514636	587.452
198.0000	0.716986	588.453
197.8000	0.835028	589.43
197.6000	0.499265	590.378
197.4000	0.307666	591.305
197.2000	0.356779	592.206
197.0000	0.422118	593.081
196.8000	0.324199	593.931
196.6000	0.4462	594.75
196.4000	0.54796	595.538
196.2000	0.947896	596.306
196.0000	1.47213	597.043
195.8000	1.61158	597.751
195.6000	1.89442	598.433
195.4000	2.30626	599.082
195.2000	2.56314	599.698
195.0000	2.44484	600.286

##### Extended Information
[Comments]
Sample name	Mota_1kx8_d07_tcep
Comment
User
Division
Company	EPFL

[Detailed Information]
Creation date	08.08.2017 17:09

Data array type	Linear data array * 2
Horizontal axis	Wavelength [nm]
Vertical axis(1)	CD [mdeg]
Vertical axis(2)	HT [V]
Start	250 nm
End	195 nm
Data interval	0.2 nm
Data points	276     

[Measurement Information]
Instrument Name	CD-Spectrometer
Model Name	J-815
Serial No.	A007961168

Accessory	PFD-425S
Accessory S/N	A001061180
  Temperature	25.00 C
  Control Sonsor	Holder
  Monitor Sensor	Holder
  Cell Length	10 mm

Photometric Mode	CD, HT
Measure Range	250 - 195 nm
Data pitch	0.2 nm
Sensitivity	Standard
D.I.T.	8 sec
Bandwidth	1.00 nm
Start Mode	Immediately
Scanning Speed	50 nm/min
Baseline Correction	None
Shutter Control	Auto
PMT Voltage	Auto
Accumulations	2
Solvent	PBS- tcep
Concentration	20 umol/L
End Temperature.	25 C
Start Temperature.	90 C
Temperature. Interval	5 C
Ramp Rate	5 C/min

