TITLE	1kx8_006
DATA TYPE	
ORIGIN	JASCO
OWNER	
DATE	17/04/27
TIME	17:59:47
SPECTROMETER/DATA SYSTEM	
LOCALE	2055
RESOLUTION	
DELTAX	-0.2
XUNITS	NANOMETERS
YUNITS	CD [mdeg]
Y2UNITS	HT [V]
FIRSTX	  250.0000
LASTX	  190.0000
NPOINTS	     301
FIRSTY	    -0.08550
MAXY	     2.57346
MINY	   -16.23806
XYDATA
250.0000	-0.0854984	306.431
249.8000	-0.100063	306.715
249.6000	-0.122002	307.001
249.4000	-0.136823	307.289
249.2000	-0.123499	307.575
249.0000	-0.118664	307.863
248.8000	-0.117462	308.151
248.6000	-0.139728	308.439
248.4000	-0.132721	308.728
248.2000	-0.145947	309.019
248.0000	-0.146438	309.312
247.8000	-0.177178	309.604
247.6000	-0.198757	309.895
247.4000	-0.203299	310.188
247.2000	-0.221405	310.483
247.0000	-0.214518	310.777
246.8000	-0.220046	311.073
246.6000	-0.228277	311.369
246.4000	-0.257823	311.665
246.2000	-0.293263	311.965
246.0000	-0.303553	312.267
245.8000	-0.312723	312.569
245.6000	-0.330225	312.871
245.4000	-0.361528	313.174
245.2000	-0.361283	313.48
245.0000	-0.35707	313.79
244.8000	-0.362632	314.102
244.6000	-0.407448	314.413
244.4000	-0.43648	314.728
244.2000	-0.466321	315.047
244.0000	-0.502617	315.367
243.8000	-0.544618	315.693
243.6000	-0.585401	316.017
243.4000	-0.607582	316.347
243.2000	-0.621607	316.679
243.0000	-0.642827	317.014
242.8000	-0.679112	317.351
242.6000	-0.732928	317.691
242.4000	-0.79857	318.034
242.2000	-0.850106	318.382
242.0000	-0.910392	318.734
241.8000	-0.943786	319.09
241.6000	-1.00701	319.448
241.4000	-1.07024	319.812
241.2000	-1.11811	320.178
241.0000	-1.17526	320.549
240.8000	-1.22746	320.926
240.6000	-1.29615	321.307
240.4000	-1.34896	321.694
240.2000	-1.41635	322.084
240.0000	-1.475	322.479
239.8000	-1.5309	322.877
239.6000	-1.59145	323.282
239.4000	-1.66425	323.688
239.2000	-1.75743	324.097
239.0000	-1.85137	324.519
238.8000	-1.92903	324.948
238.6000	-2.005	325.379
238.4000	-2.09049	325.816
238.2000	-2.21313	326.258
238.0000	-2.29188	326.713
237.8000	-2.384	327.171
237.6000	-2.47572	327.635
237.4000	-2.59235	328.106
237.2000	-2.68872	328.581
237.0000	-2.80203	329.068
236.8000	-2.9035	329.562
236.6000	-3.02208	330.067
236.4000	-3.13292	330.574
236.2000	-3.23499	331.09
236.0000	-3.33841	331.612
235.8000	-3.4021	332.148
235.6000	-3.50506	332.686
235.4000	-3.61147	333.238
235.2000	-3.75268	333.796
235.0000	-3.89423	334.362
234.8000	-4.01628	334.937
234.6000	-4.12635	335.525
234.4000	-4.23495	336.118
234.2000	-4.37538	336.721
234.0000	-4.49697	337.338
233.8000	-4.61563	337.961
233.6000	-4.75555	338.594
233.4000	-4.89235	339.234
233.2000	-5.03019	339.885
233.0000	-5.15321	340.543
232.8000	-5.25937	341.209
232.6000	-5.35556	341.886
232.4000	-5.45018	342.571
232.2000	-5.53726	343.265
232.0000	-5.64648	343.967
231.8000	-5.80641	344.685
231.6000	-5.92744	345.407
231.4000	-6.05246	346.14
231.2000	-6.20138	346.879
231.0000	-6.36614	347.625
230.8000	-6.50892	348.382
230.6000	-6.61723	349.141
230.4000	-6.72753	349.909
230.2000	-6.84143	350.679
230.0000	-6.92925	351.453
229.8000	-7.06616	352.233
229.6000	-7.17207	353.016
229.4000	-7.27069	353.803
229.2000	-7.40516	354.587
229.0000	-7.55228	355.377
228.8000	-7.69976	356.165
228.6000	-7.82976	356.957
228.4000	-7.93204	357.751
228.2000	-8.04132	358.542
228.0000	-8.16634	359.334
227.8000	-8.28429	360.128
227.6000	-8.40964	360.915
227.4000	-8.50716	361.699
227.2000	-8.61689	362.483
227.0000	-8.7243	363.268
226.8000	-8.8012	364.048
226.6000	-8.89815	364.831
226.4000	-9.02189	365.61
226.2000	-9.13404	366.385
226.0000	-9.26736	367.159
225.8000	-9.3683	367.926
225.6000	-9.48849	368.691
225.4000	-9.59148	369.45
225.2000	-9.65111	370.204
225.0000	-9.76606	370.955
224.8000	-9.834	371.697
224.6000	-9.93164	372.437
224.4000	-9.96742	373.17
224.2000	-9.94781	373.901
224.0000	-9.99071	374.626
223.8000	-10.0706	375.349
223.6000	-10.1632	376.068
223.4000	-10.2253	376.782
223.2000	-10.2441	377.492
223.0000	-10.317	378.201
222.8000	-10.4331	378.905
222.6000	-10.5199	379.61
222.4000	-10.5799	380.312
222.2000	-10.6107	381.008
222.0000	-10.6088	381.704
221.8000	-10.6507	382.395
221.6000	-10.6656	383.09
221.4000	-10.6971	383.779
221.2000	-10.742	384.465
221.0000	-10.7829	385.149
220.8000	-10.8059	385.834
220.6000	-10.8628	386.518
220.4000	-10.8676	387.201
220.2000	-10.9019	387.882
220.0000	-10.9012	388.565
219.8000	-10.9057	389.248
219.6000	-10.8661	389.929
219.4000	-10.8535	390.611
219.2000	-10.8985	391.296
219.0000	-10.9256	391.981
218.8000	-11.0113	392.664
218.6000	-11.0469	393.349
218.4000	-11.0673	394.039
218.2000	-11.0859	394.729
218.0000	-11.0484	395.42
217.8000	-11.086	396.119
217.6000	-11.1824	396.817
217.4000	-11.2702	397.519
217.2000	-11.2716	398.225
217.0000	-11.2833	398.936
216.8000	-11.2992	399.656
216.6000	-11.3733	400.382
216.4000	-11.4413	401.112
216.2000	-11.4477	401.852
216.0000	-11.4286	402.595
215.8000	-11.3812	403.352
215.6000	-11.3616	404.117
215.4000	-11.3873	404.894
215.2000	-11.4511	405.683
215.0000	-11.5013	406.478
214.8000	-11.5122	407.288
214.6000	-11.604	408.113
214.4000	-11.66	408.955
214.2000	-11.7272	409.809
214.0000	-11.7788	410.676
213.8000	-11.8574	411.557
213.6000	-11.9687	412.456
213.4000	-12.0833	413.37
213.2000	-12.2603	414.305
213.0000	-12.4262	415.257
212.8000	-12.529	416.231
212.6000	-12.6386	417.226
212.4000	-12.7731	418.243
212.2000	-12.8449	419.28
212.0000	-12.98	420.342
211.8000	-13.031	421.423
211.6000	-13.1689	422.529
211.4000	-13.3116	423.662
211.2000	-13.4459	424.823
211.0000	-13.5881	426.008
210.8000	-13.6813	427.224
210.6000	-13.8598	428.463
210.4000	-13.9691	429.734
210.2000	-14.1394	431.033
210.0000	-14.3503	432.359
209.8000	-14.5406	433.72
209.6000	-14.7229	435.11
209.4000	-14.8632	436.539
209.2000	-15.0547	437.995
209.0000	-15.2759	439.489
208.8000	-15.4762	441.011
208.6000	-15.5967	442.57
208.4000	-15.5938	444.169
208.2000	-15.6873	445.805
208.0000	-15.8131	447.478
207.8000	-15.9133	449.19
207.6000	-15.934	450.943
207.4000	-16.0159	452.739
207.2000	-16.1136	454.581
207.0000	-16.2381	456.472
206.8000	-16.1781	458.412
206.6000	-16.1505	460.4
206.4000	-16.0766	462.438
206.2000	-15.8865	464.531
206.0000	-15.7875	466.678
205.8000	-15.7926	468.887
205.6000	-15.7016	471.157
205.4000	-15.3933	473.492
205.2000	-15.2805	475.899
205.0000	-15.221	478.381
204.8000	-15.053	480.938
204.6000	-14.7431	483.574
204.4000	-14.3272	486.295
204.2000	-14.0902	489.104
204.0000	-14.0084	492.007
203.8000	-13.8949	495.007
203.6000	-13.629	498.11
203.4000	-13.471	501.321
203.2000	-13.1438	504.643
203.0000	-12.5817	508.089
202.8000	-12.2027	511.658
202.6000	-11.7	515.356
202.4000	-11.192	519.186
202.2000	-10.7123	523.158
202.0000	-10.4191	527.274
201.8000	-10.0526	531.542
201.6000	-9.50801	535.958
201.4000	-9.1302	540.53
201.2000	-8.73932	545.259
201.0000	-8.09665	550.15
200.8000	-7.29316	555.201
200.6000	-6.64475	560.406
200.4000	-5.99533	565.755
200.2000	-5.51487	571.24
200.0000	-4.63405	576.853
199.8000	-4.08076	582.582
199.6000	-3.34949	588.409
199.4000	-2.76227	594.315
199.2000	-2.50045	600.277
199.0000	-1.968	606.277
198.8000	-1.5417	612.285
198.6000	-1.30569	618.283
198.4000	-0.312343	624.25
198.2000	0.263734	630.161
198.0000	0.466281	635.997
197.8000	-0.117607	641.741
197.6000	-0.137141	647.381
197.4000	0.370565	652.906
197.2000	0.814361	658.294
197.0000	1.18261	663.541
196.8000	1.44121	668.635
196.6000	1.56971	673.57
196.4000	1.69044	678.333
196.2000	2.12884	682.911
196.0000	1.91041	687.304
195.8000	1.53206	691.506
195.6000	1.47071	695.508
195.4000	1.44592	699.303
195.2000	1.11147	702.88
195.0000	1.17903	706.237
194.8000	1.38193	709.371
194.6000	2.25712	712.278
194.4000	2.57346	714.948
194.2000	2.51724	717.383
194.0000	1.69016	719.58
193.8000	1.45837	721.548
193.6000	1.41069	723.289
193.4000	1.4258	724.812
193.2000	0.990064	726.127
193.0000	0.0594719	727.245
192.8000	-0.879362	728.181
192.6000	-0.665388	728.957
192.4000	-0.0655943	729.589
192.2000	0.537764	730.093
192.0000	0.269696	730.485
191.8000	0.0856285	730.788
191.6000	-0.518943	731.021
191.4000	-0.82071	731.193
191.2000	-0.329371	731.32
191.0000	-0.0474964	731.41
190.8000	0.13616	731.472
190.6000	0.26428	731.511
190.4000	0.13382	731.537
190.2000	0.484718	731.558
190.0000	1.35517	731.575

##### Extended Information
[Comments]
Sample name	1kx8_006
Comment
User
Division
Company	EPFL

[Detailed Information]
Creation date	27.04.2017 17:59

Data array type	Linear data array * 2
Horizontal axis	Wavelength [nm]
Vertical axis(1)	CD [mdeg]
Vertical axis(2)	HT [V]
Start	250 nm
End	190 nm
Data interval	0.2 nm
Data points	301     

[Measurement Information]
Instrument Name	CD-Spectrometer
Model Name	J-815
Serial No.	A007961168

Accessory	PFD-425S
Accessory S/N	A001061180
  Temperature	20.01 C
  Control Sonsor	Holder
  Monitor Sensor	Holder
  Cell Length	10 mm

Photometric Mode	CD, HT
Measure Range	250 - 190 nm
Data pitch	0.2 nm
Sensitivity	Standard
D.I.T.	8 sec
Bandwidth	1.00 nm
Start Mode	Immediately
Scanning Speed	50 nm/min
Baseline Correction	None
Shutter Control	Auto
PMT Voltage	Auto
Accumulations	2
End Temperature.	20 C
Start Temperature.	90 C
Temperature. Interval	5 C
Ramp Rate	5 C/min

