TITLE	1kx8_006
DATA TYPE	
ORIGIN	JASCO
OWNER	
DATE	17/04/27
TIME	17:59:47
SPECTROMETER/DATA SYSTEM	
LOCALE	2055
RESOLUTION	
DELTAX	-0.2
XUNITS	NANOMETERS
YUNITS	CD [mdeg]
Y2UNITS	HT [V]
FIRSTX	  250.0000
LASTX	  190.0000
NPOINTS	     301
FIRSTY	    -0.19081
MAXY	     4.48141
MINY	   -15.98845
XYDATA
250.0000	-0.190806	306.329
249.8000	-0.1881	306.613
249.6000	-0.194731	306.896
249.4000	-0.185862	307.183
249.2000	-0.179976	307.468
249.0000	-0.192119	307.759
248.8000	-0.180334	308.046
248.6000	-0.187467	308.335
248.4000	-0.204249	308.623
248.2000	-0.219033	308.912
248.0000	-0.243812	309.204
247.8000	-0.254683	309.497
247.6000	-0.265731	309.792
247.4000	-0.268193	310.085
247.2000	-0.254464	310.38
247.0000	-0.243501	310.672
246.8000	-0.256553	310.965
246.6000	-0.281824	311.26
246.4000	-0.304794	311.556
246.2000	-0.308579	311.857
246.0000	-0.317667	312.16
245.8000	-0.326793	312.463
245.6000	-0.349865	312.764
245.4000	-0.388676	313.067
245.2000	-0.392127	313.374
245.0000	-0.433918	313.684
244.8000	-0.474893	313.996
244.6000	-0.510791	314.307
244.4000	-0.521215	314.624
244.2000	-0.555837	314.943
244.0000	-0.589386	315.267
243.8000	-0.634237	315.591
243.6000	-0.662343	315.918
243.4000	-0.707429	316.248
243.2000	-0.7453	316.58
243.0000	-0.789246	316.914
242.8000	-0.826102	317.254
242.6000	-0.886536	317.594
242.4000	-0.906951	317.939
242.2000	-0.933065	318.288
242.0000	-0.984298	318.641
241.8000	-1.04371	318.998
241.6000	-1.10078	319.357
241.4000	-1.13472	319.719
241.2000	-1.19051	320.086
241.0000	-1.26157	320.457
240.8000	-1.33687	320.833
240.6000	-1.36467	321.212
240.4000	-1.41289	321.599
240.2000	-1.49388	321.989
240.0000	-1.55987	322.382
239.8000	-1.62747	322.781
239.6000	-1.69479	323.187
239.4000	-1.79201	323.594
239.2000	-1.86455	324.009
239.0000	-1.93072	324.428
238.8000	-2.00712	324.856
238.6000	-2.09513	325.29
238.4000	-2.15669	325.725
238.2000	-2.23218	326.17
238.0000	-2.33789	326.621
237.8000	-2.4398	327.077
237.6000	-2.51914	327.541
237.4000	-2.57083	328.009
237.2000	-2.66768	328.489
237.0000	-2.78975	328.973
236.8000	-2.91554	329.465
236.6000	-3.01385	329.968
236.4000	-3.09424	330.474
236.2000	-3.19177	330.99
236.0000	-3.30477	331.512
235.8000	-3.40993	332.042
235.6000	-3.53681	332.584
235.4000	-3.6502	333.132
235.2000	-3.75853	333.688
235.0000	-3.85935	334.252
234.8000	-4.00945	334.826
234.6000	-4.15555	335.408
234.4000	-4.27857	336.004
234.2000	-4.39218	336.607
234.0000	-4.5415	337.222
233.8000	-4.70423	337.841
233.6000	-4.86265	338.474
233.4000	-5.02473	339.115
233.2000	-5.18505	339.765
233.0000	-5.35379	340.423
232.8000	-5.51476	341.089
232.6000	-5.66043	341.763
232.4000	-5.82983	342.444
232.2000	-5.95419	343.138
232.0000	-6.09526	343.839
231.8000	-6.24406	344.552
231.6000	-6.38611	345.275
231.4000	-6.50341	346.003
231.2000	-6.65278	346.744
231.0000	-6.80371	347.492
230.8000	-6.98762	348.249
230.6000	-7.13802	349.007
230.4000	-7.24385	349.775
230.2000	-7.35013	350.543
230.0000	-7.50788	351.32
229.8000	-7.68432	352.102
229.6000	-7.84124	352.884
229.4000	-8.00515	353.67
229.2000	-8.1541	354.456
229.0000	-8.29406	355.246
228.8000	-8.44228	356.036
228.6000	-8.5821	356.827
228.4000	-8.7779	357.619
228.2000	-8.93119	358.413
228.0000	-9.01108	359.21
227.8000	-9.1323	359.998
227.6000	-9.27148	360.79
227.4000	-9.38438	361.577
227.2000	-9.45374	362.364
227.0000	-9.54674	363.148
226.8000	-9.64754	363.932
226.6000	-9.74753	364.71
226.4000	-9.83612	365.489
226.2000	-9.9191	366.266
226.0000	-10.0186	367.038
225.8000	-10.1229	367.812
225.6000	-10.2026	368.577
225.4000	-10.3246	369.339
225.2000	-10.3866	370.093
225.0000	-10.4255	370.843
224.8000	-10.4849	371.589
224.6000	-10.5488	372.327
224.4000	-10.6183	373.064
224.2000	-10.6427	373.793
224.0000	-10.7198	374.52
223.8000	-10.7447	375.242
223.6000	-10.8279	375.96
223.4000	-10.8699	376.674
223.2000	-10.876	377.386
223.0000	-10.8859	378.093
222.8000	-10.885	378.801
222.6000	-10.879	379.506
222.4000	-10.9005	380.204
222.2000	-10.9502	380.899
222.0000	-11.0058	381.593
221.8000	-11.0262	382.284
221.6000	-11.053	382.977
221.4000	-11.1625	383.662
221.2000	-11.2295	384.351
221.0000	-11.2749	385.034
220.8000	-11.3086	385.717
220.6000	-11.3635	386.395
220.4000	-11.3759	387.076
220.2000	-11.3656	387.755
220.0000	-11.3908	388.434
219.8000	-11.3856	389.11
219.6000	-11.406	389.788
219.4000	-11.4131	390.471
219.2000	-11.4109	391.146
219.0000	-11.4042	391.829
218.8000	-11.4448	392.508
218.6000	-11.5049	393.189
218.4000	-11.6165	393.874
218.2000	-11.6636	394.558
218.0000	-11.7186	395.251
217.8000	-11.7647	395.944
217.6000	-11.7846	396.639
217.4000	-11.7689	397.338
217.2000	-11.841	398.04
217.0000	-11.8914	398.746
216.8000	-11.935	399.461
216.6000	-11.93	400.179
216.4000	-11.9972	400.903
216.2000	-12.1493	401.635
216.0000	-12.2469	402.375
215.8000	-12.3031	403.127
215.6000	-12.3218	403.887
215.4000	-12.2919	404.657
215.2000	-12.2717	405.438
215.0000	-12.2961	406.228
214.8000	-12.2221	407.037
214.6000	-12.2751	407.855
214.4000	-12.367	408.685
214.2000	-12.435	409.533
214.0000	-12.5252	410.395
213.8000	-12.5515	411.272
213.6000	-12.6351	412.163
213.4000	-12.6856	413.068
213.2000	-12.7845	413.996
213.0000	-12.8642	414.939
212.8000	-12.9602	415.903
212.6000	-13.0549	416.888
212.4000	-13.1927	417.892
212.2000	-13.2978	418.921
212.0000	-13.3306	419.97
211.8000	-13.3876	421.037
211.6000	-13.5176	422.131
211.4000	-13.6387	423.248
211.2000	-13.7567	424.388
211.0000	-13.9649	425.553
210.8000	-14.1602	426.745
210.6000	-14.2738	427.972
210.4000	-14.4088	429.222
210.2000	-14.5186	430.501
210.0000	-14.7197	431.806
209.8000	-14.8178	433.142
209.6000	-14.8302	434.509
209.4000	-14.8612	435.908
209.2000	-14.9542	437.335
209.0000	-15.1732	438.794
208.8000	-15.369	440.283
208.6000	-15.5591	441.807
208.4000	-15.7132	443.367
208.2000	-15.8938	444.958
208.0000	-15.9778	446.583
207.8000	-15.9334	448.247
207.6000	-15.8898	449.949
207.4000	-15.8436	451.689
207.2000	-15.8828	453.469
207.0000	-15.9885	455.296
206.8000	-15.919	457.169
206.6000	-15.7839	459.085
206.4000	-15.7224	461.047
206.2000	-15.6492	463.058
206.0000	-15.6607	465.117
205.8000	-15.5954	467.232
205.6000	-15.4971	469.397
205.4000	-15.5241	471.627
205.2000	-15.447	473.922
205.0000	-15.2108	476.274
204.8000	-14.9204	478.7
204.6000	-14.5508	481.194
204.4000	-14.1574	483.768
204.2000	-13.8472	486.42
204.0000	-13.6691	489.147
203.8000	-13.3595	491.965
203.6000	-13.1343	494.874
203.4000	-12.7089	497.881
203.2000	-12.3724	500.99
203.0000	-11.9379	504.202
202.8000	-11.7153	507.527
202.6000	-11.4274	510.968
202.4000	-11.005	514.524
202.2000	-10.2138	518.216
202.0000	-9.51466	522.038
201.8000	-8.98624	525.998
201.6000	-8.48175	530.097
201.4000	-7.89463	534.34
201.2000	-7.46944	538.733
201.0000	-6.91004	543.279
200.8000	-6.47513	547.984
200.6000	-5.95983	552.839
200.4000	-5.22209	557.847
200.2000	-4.69395	563.006
200.0000	-4.14365	568.309
199.8000	-3.65727	573.748
199.6000	-3.30119	579.31
199.4000	-2.76131	584.984
199.2000	-1.71013	590.752
199.0000	-0.697032	596.597
198.8000	-0.262945	602.495
198.6000	0.388266	608.43
198.4000	0.942091	614.376
198.2000	1.06838	620.302
198.0000	1.49777	626.192
197.8000	1.5642	632.026
197.6000	1.93389	637.794
197.4000	2.4598	643.477
197.2000	2.37403	649.053
197.0000	2.39759	654.512
196.8000	2.28161	659.84
196.6000	2.15893	665.023
196.4000	1.90718	670.059
196.2000	2.12058	674.933
196.0000	2.55371	679.65
195.8000	2.91338	684.195
195.6000	3.1808	688.56
195.4000	3.0231	692.722
195.2000	3.35362	696.68
195.0000	3.97083	700.433
194.8000	4.13593	703.967
194.6000	4.20589	707.286
194.4000	4.48141	710.38
194.2000	4.43155	713.241
194.0000	4.04565	715.878
193.8000	3.69907	718.281
193.6000	3.7992	720.458
193.4000	3.75257	722.407
193.2000	3.43164	724.129
193.0000	3.38293	725.64
192.8000	3.00709	726.946
192.6000	2.23146	728.06
192.4000	1.15578	728.997
192.2000	0.466909	729.768
192.0000	-0.0286304	730.39
191.8000	-0.505905	730.887
191.6000	-0.682197	731.284
191.4000	-0.728562	731.598
191.2000	-0.626555	731.839
191.0000	-1.07553	732.013
190.8000	-1.82185	732.136
190.6000	-1.77335	732.226
190.4000	-1.88642	732.287
190.2000	-1.38271	732.33
190.0000	-1.1789	732.358

##### Extended Information
[Comments]
Sample name	1kx8_006
Comment
User
Division
Company	EPFL

[Detailed Information]
Creation date	27.04.2017 17:59

Data array type	Linear data array * 2
Horizontal axis	Wavelength [nm]
Vertical axis(1)	CD [mdeg]
Vertical axis(2)	HT [V]
Start	250 nm
End	190 nm
Data interval	0.2 nm
Data points	301     

[Measurement Information]
Instrument Name	CD-Spectrometer
Model Name	J-815
Serial No.	A007961168

Accessory	PFD-425S
Accessory S/N	A001061180
  Temperature	20.01 C
  Control Sonsor	Holder
  Monitor Sensor	Holder
  Cell Length	10 mm

Photometric Mode	CD, HT
Measure Range	250 - 190 nm
Data pitch	0.2 nm
Sensitivity	Standard
D.I.T.	8 sec
Bandwidth	1.00 nm
Start Mode	Immediately
Scanning Speed	50 nm/min
Baseline Correction	None
Shutter Control	Auto
PMT Voltage	Auto
Accumulations	2
End Temperature.	20 C
Start Temperature.	90 C
Temperature. Interval	5 C
Ramp Rate	5 C/min

