TITLE	1kx8_006	
DATA TYPE		
ORIGIN	JASCO	
OWNER		
DATE	17.04.27	
TIME	17:59:47	
SPECTROMETER/DATA SYSTEM		
LOCALE	2055	
RESOLUTION		
DELTAX	-0.2	
XUNITS	NANOMETERS	
YUNITS	CD [mdeg]	
Y2UNITS	HT [V]	
FIRSTX	250	
LASTX	190	
NPOINTS	301	
FIRSTY	-0.02186	
MAXY	10.75858	
MINY	-18.79037	
XYDATA		
250	-0.0218605	306.507
249.8	-0.0228786	306.791
249.6	-0.0282436	307.074
249.4	-0.0695185	307.361
249.2	-0.0972055	307.646
249	-0.110621	307.932
248.8	-0.120337	308.219
248.6	-0.11935	308.508
248.4	-0.123	308.797
248.2	-0.149137	309.087
248	-0.169547	309.375
247.8	-0.180804	309.666
247.6	-0.188646	309.955
247.4	-0.208485	310.249
247.2	-0.255222	310.54
247	-0.265105	310.833
246.8	-0.279012	311.128
246.6	-0.28993	311.421
246.4	-0.282461	311.716
246.2	-0.311301	312.015
246	-0.322952	312.311
245.8	-0.341896	312.609
245.6	-0.359852	312.907
245.4	-0.371714	313.208
245.2	-0.388224	313.515
245	-0.400907	313.82
244.8	-0.434229	314.134
244.6	-0.450271	314.446
244.4	-0.466186	314.759
244.2	-0.482954	315.077
244	-0.508869	315.396
243.8	-0.534106	315.72
243.6	-0.542756	316.046
243.4	-0.559567	316.376
243.2	-0.583681	316.707
243	-0.605974	317.041
242.8	-0.58657	317.38
242.6	-0.624686	317.719
242.4	-0.685085	318.064
242.2	-0.749924	318.41
242	-0.8359	318.76
241.8	-0.906568	319.111
241.6	-0.976096	319.469
241.4	-1.05218	319.83
241.2	-1.11931	320.197
241	-1.15428	320.567
240.8	-1.20295	320.941
240.6	-1.26124	321.32
240.4	-1.32406	321.702
240.2	-1.38341	322.089
240	-1.44153	322.48
239.8	-1.56435	322.875
239.6	-1.67159	323.279
239.4	-1.74865	323.687
239.2	-1.85157	324.1
239	-1.93854	324.52
238.8	-2.03447	324.942
238.6	-2.14267	325.374
238.4	-2.26126	325.807
238.2	-2.37133	326.248
238	-2.46907	326.698
237.8	-2.57768	327.154
237.6	-2.69204	327.62
237.4	-2.78822	328.091
237.2	-2.9031	328.569
237	-3.05245	329.055
236.8	-3.21115	329.547
236.6	-3.37096	330.047
236.4	-3.49343	330.556
236.2	-3.64776	331.068
236	-3.77156	331.595
235.8	-3.89945	332.124
235.6	-4.03754	332.667
235.4	-4.17798	333.223
235.2	-4.33248	333.781
235	-4.47214	334.351
234.8	-4.60074	334.932
234.6	-4.75136	335.52
234.4	-4.91757	336.122
234.2	-5.07492	336.73
234	-5.22006	337.352
233.8	-5.39987	337.982
233.6	-5.57254	338.625
233.4	-5.7435	339.28
233.2	-5.89417	339.943
233	-6.07385	340.615
232.8	-6.2613	341.293
232.6	-6.44595	341.98
232.4	-6.66145	342.68
232.2	-6.84952	343.392
232	-7.00734	344.113
231.8	-7.15519	344.845
231.6	-7.31512	345.588
231.4	-7.49198	346.341
231.2	-7.69725	347.102
231	-7.88788	347.868
230.8	-8.12381	348.647
230.6	-8.35034	349.43
230.4	-8.53905	350.221
230.2	-8.70108	351.014
230	-8.91377	351.811
229.8	-9.1194	352.613
229.6	-9.34701	353.419
229.4	-9.55909	354.223
229.2	-9.76421	355.036
229	-9.95485	355.85
228.8	-10.1306	356.663
228.6	-10.2582	357.477
228.4	-10.4028	358.29
228.2	-10.5767	359.109
228	-10.717	359.922
227.8	-10.8517	360.736
227.6	-11.0259	361.547
227.4	-11.1568	362.358
227.2	-11.2792	363.164
227	-11.4113	363.971
226.8	-11.5901	364.77
226.6	-11.786	365.571
226.4	-11.9085	366.367
226.2	-12.0443	367.159
226	-12.1624	367.951
225.8	-12.2871	368.737
225.6	-12.4143	369.518
225.4	-12.5724	370.292
225.2	-12.7569	371.06
225	-12.9256	371.822
224.8	-13.0648	372.579
224.6	-13.185	373.326
224.4	-13.31	374.072
224.2	-13.4103	374.805
224	-13.4523	375.542
223.8	-13.511	376.27
223.6	-13.5891	376.999
223.4	-13.6437	377.724
223.2	-13.7322	378.446
223	-13.8086	379.162
222.8	-13.8359	379.878
222.6	-13.8751	380.588
222.4	-13.9165	381.293
222.2	-13.9703	381.994
222	-13.9983	382.695
221.8	-14.0632	383.391
221.6	-14.1242	384.085
221.4	-14.1147	384.779
221.2	-14.1167	385.464
221	-14.1228	386.149
220.8	-14.1796	386.832
220.6	-14.242	387.512
220.4	-14.3192	388.191
220.2	-14.3209	388.869
220	-14.3106	389.544
219.8	-14.2771	390.219
219.6	-14.2791	390.893
219.4	-14.2934	391.572
219.2	-14.3227	392.247
219	-14.3657	392.922
218.8	-14.3722	393.598
218.6	-14.351	394.278
218.4	-14.3568	394.951
218.2	-14.3311	395.631
218	-14.3525	396.314
217.8	-14.3322	396.998
217.6	-14.2983	397.687
217.4	-14.3324	398.377
217.2	-14.3784	399.073
217	-14.4302	399.77
216.8	-14.4481	400.471
216.6	-14.3953	401.178
216.4	-14.3134	401.891
216.2	-14.3182	402.61
216	-14.3793	403.34
215.8	-14.4462	404.076
215.6	-14.4754	404.819
215.4	-14.6012	405.573
215.2	-14.7056	406.337
215	-14.7475	407.112
214.8	-14.8759	407.898
214.6	-14.9966	408.695
214.4	-15.1101	409.507
214.2	-15.1789	410.333
214	-15.2521	411.168
213.8	-15.2845	412.019
213.6	-15.3859	412.88
213.4	-15.4826	413.759
213.2	-15.6541	414.658
213	-15.7556	415.575
212.8	-15.8615	416.507
212.6	-15.9197	417.457
212.4	-15.9693	418.425
212.2	-16.0574	419.412
212	-16.1701	420.417
211.8	-16.2635	421.449
211.6	-16.4395	422.496
211.4	-16.6427	423.567
211.2	-16.8004	424.658
211	-16.9791	425.775
210.8	-17.1573	426.912
210.6	-17.3178	428.072
210.4	-17.4373	429.261
210.2	-17.6394	430.464
210	-17.8059	431.696
209.8	-18.0507	432.948
209.6	-18.297	434.226
209.4	-18.4633	435.53
209.2	-18.6	436.856
209	-18.6948	438.207
208.8	-18.6798	439.586
208.6	-18.6711	440.993
208.4	-18.6994	442.423
208.2	-18.7034	443.878
208	-18.7161	445.361
207.8	-18.7096	446.866
207.6	-18.7272	448.399
207.4	-18.7904	449.962
207.2	-18.7465	451.55
207	-18.6985	453.172
206.8	-18.6646	454.817
206.6	-18.5699	456.495
206.4	-18.4935	458.195
206.2	-18.4342	459.922
206	-18.2426	461.686
205.8	-18.1218	463.48
205.6	-17.9723	465.302
205.4	-17.77	467.155
205.2	-17.5741	469.043
205	-17.387	470.962
204.8	-17.078	472.918
204.6	-16.6658	474.909
204.4	-16.2671	476.937
204.2	-15.8544	479.001
204	-15.4342	481.102
203.8	-15.0256	483.243
203.6	-14.7271	485.424
203.4	-14.2267	487.657
203.2	-13.6376	489.933
203	-13.0788	492.255
202.8	-12.4665	494.621
202.6	-11.8728	497.038
202.4	-11.1548	499.503
202.2	-10.6899	502.024
202	-10.108	504.6
201.8	-9.3445	507.234
201.6	-8.76577	509.922
201.4	-8.04606	512.677
201.2	-7.41313	515.497
201	-6.65981	518.383
200.8	-5.88164	521.342
200.6	-5.14464	524.375
200.4	-4.54746	527.484
200.2	-3.78132	530.671
200	-2.93513	533.94
199.8	-2.12395	537.296
199.6	-1.26634	540.746
199.4	-0.62941	544.284
199.2	0.26145	547.926
199	1.23008	551.669
198.8	2.19636	555.517
198.6	3.24089	559.478
198.4	4.28193	563.544
198.2	5.06878	567.714
198	5.47999	571.987
197.8	6.11031	576.362
197.6	6.79112	580.838
197.4	7.1526	585.409
197.2	7.6094	590.076
197	8.48849	594.832
196.8	9.20005	599.666
196.6	9.36108	604.57
196.4	9.9577	609.534
196.2	10.1864	614.542
196	10.5251	619.58
195.8	10.1734	624.629
195.6	10.5122	629.667
195.4	10.7586	634.679
195.2	9.93499	639.646
195	10.0283	644.563
194.8	10.5938	649.414
194.6	10.7264	654.182
194.4	10.3093	658.857
194.2	9.57409	663.421
194	9.63597	667.875
193.8	9.12105	672.204
193.6	8.74984	676.404
193.4	8.40296	680.461
193.2	8.14418	684.374
193	8.18918	688.136
192.8	7.9766	691.738
192.6	7.79178	695.171
192.4	7.11917	698.437
192.2	7.22766	701.528
192	6.36923	704.434
191.8	4.85018	707.152
191.6	4.07854	709.691
191.4	4.06676	712.047
191.2	4.05403	714.219
191	3.67604	716.207
190.8	3.39843	718.011
190.6	2.98423	719.634
190.4	2.26462	721.079
190.2	1.62921	722.348
190	0.931716	723.449
		
##### Extended Information		
[Comments]		
Sample name	1kx8_006	
Comment		
User		
Division		
Company	EPFL	
		
[Detailed Information]		
Creation date	27.04.17 17:59	
		
Data array type	Linear data array * 2	
Horizontal axis	Wavelength [nm]	
Vertical axis(1)	CD [mdeg]	
Vertical axis(2)	HT [V]	
Start	250 nm	
End	190 nm	
Data interval	0.2 nm	
Data points	301	
		
[Measurement Information]		
Instrument Name	CD-Spectrometer	
Model Name	J-815	
Serial No.	A007961168	
		
Accessory	PFD-425S	
Accessory S/N	A001061180	
  Temperature	20.01 C	
  Control Sonsor	Holder	
  Monitor Sensor	Holder	
  Cell Length	10 mm	
		
Photometric Mode	"CD, HT"	
Measure Range	250 - 190 nm	
Data pitch	0.2 nm	
Sensitivity	Standard	
D.I.T.	8 sec	
Bandwidth	1.00 nm	
Start Mode	Immediately	
Scanning Speed	50 nm/min	
Baseline Correction	None	
Shutter Control	Auto	
PMT Voltage	Auto	
Accumulations	2	
End Temperature.	20 C	
Start Temperature.	90 C	
Temperature. Interval	5 C	
Ramp Rate	5 C/min	