TITLE	1kx8_006
DATA TYPE	
ORIGIN	JASCO
OWNER	
DATE	17/04/27
TIME	17:59:47
SPECTROMETER/DATA SYSTEM	
LOCALE	2055
RESOLUTION	
DELTAX	-0.2
XUNITS	NANOMETERS
YUNITS	CD [mdeg]
Y2UNITS	HT [V]
FIRSTX	  250.0000
LASTX	  190.0000
NPOINTS	     301
FIRSTY	    -0.13066
MAXY	     3.67176
MINY	   -16.57753
XYDATA
250.0000	-0.130657	306.557
249.8000	-0.153286	306.84
249.6000	-0.172254	307.125
249.4000	-0.184261	307.415
249.2000	-0.187467	307.702
249.0000	-0.191892	307.994
248.8000	-0.197968	308.285
248.6000	-0.24029	308.575
248.4000	-0.26574	308.866
248.2000	-0.254706	309.16
248.0000	-0.26506	309.454
247.8000	-0.279475	309.748
247.6000	-0.299942	310.04
247.4000	-0.329866	310.336
247.2000	-0.374623	310.632
247.0000	-0.439467	310.928
246.8000	-0.501666	311.226
246.6000	-0.532435	311.525
246.4000	-0.528953	311.825
246.2000	-0.549939	312.126
246.0000	-0.574757	312.43
245.8000	-0.5649	312.733
245.6000	-0.59325	313.039
245.4000	-0.625324	313.35
245.2000	-0.626136	313.662
245.0000	-0.615365	313.975
244.8000	-0.630629	314.288
244.6000	-0.647821	314.603
244.4000	-0.689616	314.922
244.2000	-0.72888	315.246
244.0000	-0.775786	315.572
243.8000	-0.813748	315.903
243.6000	-0.856084	316.236
243.4000	-0.90231	316.571
243.2000	-0.938938	316.91
243.0000	-0.970824	317.252
242.8000	-1.03635	317.599
242.6000	-1.10587	317.947
242.4000	-1.16987	318.296
242.2000	-1.23665	318.652
242.0000	-1.27088	319.012
241.8000	-1.32537	319.374
241.6000	-1.36548	319.743
241.4000	-1.43165	320.113
241.2000	-1.51213	320.488
241.0000	-1.58499	320.871
240.8000	-1.62695	321.258
240.6000	-1.66807	321.649
240.4000	-1.69932	322.044
240.2000	-1.70425	322.448
240.0000	-1.73869	322.854
239.8000	-1.81844	323.265
239.6000	-1.8737	323.682
239.4000	-1.95285	324.103
239.2000	-2.05361	324.536
239.0000	-2.14298	324.972
238.8000	-2.22204	325.413
238.6000	-2.30684	325.864
238.4000	-2.39338	326.319
238.2000	-2.47718	326.785
238.0000	-2.55115	327.259
237.8000	-2.59976	327.739
237.6000	-2.67326	328.225
237.4000	-2.73837	328.716
237.2000	-2.81377	329.217
237.0000	-2.88084	329.728
236.8000	-2.92718	330.249
236.6000	-2.98601	330.778
236.4000	-3.08221	331.317
236.2000	-3.1409	331.86
236.0000	-3.22804	332.417
235.8000	-3.32017	332.985
235.6000	-3.40241	333.559
235.4000	-3.51349	334.144
235.2000	-3.60356	334.735
235.0000	-3.69401	335.339
234.8000	-3.82536	335.955
234.6000	-3.92946	336.577
234.4000	-4.03339	337.213
234.2000	-4.18566	337.86
234.0000	-4.31675	338.518
233.8000	-4.45038	339.189
233.6000	-4.56092	339.87
233.4000	-4.68981	340.563
233.2000	-4.78266	341.264
233.0000	-4.92125	341.976
232.8000	-5.03372	342.696
232.6000	-5.13495	343.424
232.4000	-5.2253	344.167
232.2000	-5.33236	344.92
232.0000	-5.43204	345.683
231.8000	-5.54328	346.462
231.6000	-5.65526	347.247
231.4000	-5.74521	348.045
231.2000	-5.8595	348.851
231.0000	-6.0163	349.669
230.8000	-6.13324	350.495
230.6000	-6.22776	351.328
230.4000	-6.3368	352.17
230.2000	-6.47014	353.014
230.0000	-6.59618	353.865
229.8000	-6.72492	354.719
229.6000	-6.82712	355.583
229.4000	-6.9232	356.444
229.2000	-7.00153	357.313
229.0000	-7.10326	358.185
228.8000	-7.1653	359.061
228.6000	-7.28713	359.943
228.4000	-7.39425	360.82
228.2000	-7.46342	361.701
228.0000	-7.5484	362.584
227.8000	-7.62537	363.464
227.6000	-7.65635	364.34
227.4000	-7.72003	365.215
227.2000	-7.77981	366.09
227.0000	-7.8642	366.963
226.8000	-7.91534	367.834
226.6000	-8.00986	368.703
226.4000	-8.084	369.57
226.2000	-8.17041	370.436
226.0000	-8.23452	371.299
225.8000	-8.33992	372.155
225.6000	-8.42092	373.008
225.4000	-8.50575	373.858
225.2000	-8.62104	374.696
225.0000	-8.6769	375.532
224.8000	-8.76124	376.359
224.6000	-8.83169	377.182
224.4000	-8.85739	378.002
224.2000	-8.90497	378.811
224.0000	-8.95777	379.619
223.8000	-9.06436	380.422
223.6000	-9.12756	381.219
223.4000	-9.21016	382.011
223.2000	-9.25871	382.8
223.0000	-9.32229	383.584
222.8000	-9.36966	384.367
222.6000	-9.39816	385.143
222.4000	-9.42143	385.918
222.2000	-9.51892	386.688
222.0000	-9.60842	387.453
221.8000	-9.64584	388.217
221.6000	-9.70648	388.978
221.4000	-9.80117	389.735
221.2000	-9.86154	390.488
221.0000	-9.91224	391.242
220.8000	-9.93012	391.993
220.6000	-9.91846	392.741
220.4000	-9.92804	393.485
220.2000	-9.92941	394.227
220.0000	-9.9762	394.971
219.8000	-9.99652	395.714
219.6000	-10.0066	396.456
219.4000	-10.0884	397.201
219.2000	-10.1545	397.943
219.0000	-10.1995	398.686
218.8000	-10.2548	399.427
218.6000	-10.2855	400.174
218.4000	-10.2981	400.92
218.2000	-10.3431	401.672
218.0000	-10.4326	402.423
217.8000	-10.5071	403.179
217.6000	-10.5338	403.943
217.4000	-10.5856	404.711
217.2000	-10.6238	405.484
217.0000	-10.6404	406.262
216.8000	-10.6937	407.05
216.6000	-10.6741	407.843
216.4000	-10.6943	408.648
216.2000	-10.7172	409.458
216.0000	-10.7623	410.279
215.8000	-10.806	411.116
215.6000	-10.8398	411.958
215.4000	-10.8157	412.815
215.2000	-10.8658	413.683
215.0000	-10.9553	414.567
214.8000	-10.9714	415.471
214.6000	-10.9646	416.395
214.4000	-10.9814	417.334
214.2000	-11.0594	418.294
214.0000	-11.2338	419.272
213.8000	-11.3844	420.275
213.6000	-11.5264	421.301
213.4000	-11.6024	422.35
213.2000	-11.6726	423.424
213.0000	-11.8294	424.522
212.8000	-11.9279	425.649
212.6000	-11.9663	426.808
212.4000	-11.9964	427.994
212.2000	-12.1129	429.217
212.0000	-12.1267	430.466
211.8000	-12.1902	431.749
211.6000	-12.3283	433.068
211.4000	-12.3515	434.426
211.2000	-12.3477	435.822
211.0000	-12.4616	437.254
210.8000	-12.549	438.726
210.6000	-12.6323	440.244
210.4000	-12.8095	441.807
210.2000	-12.888	443.414
210.0000	-13.0237	445.074
209.8000	-13.2698	446.78
209.6000	-13.4203	448.543
209.4000	-13.579	450.356
209.2000	-13.8638	452.218
209.0000	-14.0635	454.142
208.8000	-14.2484	456.122
208.6000	-14.4631	458.169
208.4000	-14.7395	460.28
208.2000	-14.7491	462.454
208.0000	-14.903	464.697
207.8000	-15.2198	467.011
207.6000	-15.5131	469.4
207.4000	-15.7738	471.871
207.2000	-15.8427	474.422
207.0000	-15.9223	477.064
206.8000	-16.0071	479.793
206.6000	-16.061	482.619
206.4000	-16.1205	485.544
206.2000	-16.2044	488.567
206.0000	-16.2538	491.703
205.8000	-16.3673	494.947
205.6000	-16.4317	498.303
205.4000	-16.5484	501.788
205.2000	-16.5775	505.4
205.0000	-16.383	509.146
204.8000	-16.3271	513.032
204.6000	-16.3354	517.064
204.4000	-16.3056	521.249
204.2000	-16.2057	525.589
204.0000	-16.0096	530.09
203.8000	-15.9283	534.752
203.6000	-15.7099	539.574
203.4000	-15.5229	544.554
203.2000	-15.233	549.694
203.0000	-14.7953	554.987
202.8000	-14.2504	560.437
202.6000	-13.912	566.032
202.4000	-13.817	571.757
202.2000	-13.556	577.604
202.0000	-13.1026	583.553
201.8000	-12.5325	589.586
201.6000	-12.0304	595.681
201.4000	-11.4965	601.817
201.2000	-10.6574	607.974
201.0000	-10.3024	614.125
200.8000	-10.0734	620.245
200.6000	-10.1035	626.316
200.4000	-9.55973	632.32
200.2000	-8.85914	638.239
200.0000	-7.848	644.054
199.8000	-7.47637	649.75
199.6000	-6.69921	655.321
199.4000	-5.82884	660.745
199.2000	-5.13048	666.02
199.0000	-4.7246	671.128
198.8000	-3.51306	676.071
198.6000	-2.43786	680.832
198.4000	-2.33155	685.4
198.2000	-2.06018	689.775
198.0000	-1.30511	693.942
197.8000	-1.15299	697.891
197.6000	-0.806892	701.622
197.4000	-0.548088	705.123
197.2000	-0.455577	708.39
197.0000	-0.523104	711.425
196.8000	-0.0484999	714.226
196.6000	0.302701	716.789
196.4000	0.24175	719.108
196.2000	0.24539	721.191
196.0000	0.360796	723.041
195.8000	1.05132	724.667
195.6000	1.32504	726.076
195.4000	1.77343	727.283
195.2000	1.94786	728.3
195.0000	2.21074	729.15
194.8000	2.43887	729.845
194.6000	2.02811	730.401
194.4000	2.09291	730.84
194.2000	2.47266	731.182
194.0000	3.33903	731.448
193.8000	3.67176	731.646
193.6000	3.49355	731.791
193.4000	3.08162	731.894
193.2000	2.87346	731.968
193.0000	2.57743	732.017
192.8000	2.56818	732.055
192.6000	1.95891	732.076
192.4000	1.36382	732.089
192.2000	1.16786	732.1
192.0000	0.267066	732.104
191.8000	0.368581	732.11
191.6000	0.559485	732.115
191.4000	-0.0914192	732.115
191.2000	0.285917	732.119
191.0000	-0.119156	732.12
190.8000	-0.400587	732.125
190.6000	-0.748141	732.127
190.4000	-0.47732	732.134
190.2000	-0.700046	732.14
190.0000	-1.27445	732.149

##### Extended Information
[Comments]
Sample name	1kx8_006
Comment
User
Division
Company	EPFL

[Detailed Information]
Creation date	27.04.2017 17:59

Data array type	Linear data array * 2
Horizontal axis	Wavelength [nm]
Vertical axis(1)	CD [mdeg]
Vertical axis(2)	HT [V]
Start	250 nm
End	190 nm
Data interval	0.2 nm
Data points	301     

[Measurement Information]
Instrument Name	CD-Spectrometer
Model Name	J-815
Serial No.	A007961168

Accessory	PFD-425S
Accessory S/N	A001061180
  Temperature	20.01 C
  Control Sonsor	Holder
  Monitor Sensor	Holder
  Cell Length	10 mm

Photometric Mode	CD, HT
Measure Range	250 - 190 nm
Data pitch	0.2 nm
Sensitivity	Standard
D.I.T.	8 sec
Bandwidth	1.00 nm
Start Mode	Immediately
Scanning Speed	50 nm/min
Baseline Correction	None
Shutter Control	Auto
PMT Voltage	Auto
Accumulations	2
End Temperature.	20 C
Start Temperature.	90 C
Temperature. Interval	5 C
Ramp Rate	5 C/min

