TITLE	1kx8_01
DATA TYPE	
ORIGIN	JASCO
OWNER	
DATE	17/05/10
TIME	14:51:09
SPECTROMETER/DATA SYSTEM	
LOCALE	2055
RESOLUTION	
DELTAX	-0.2
XUNITS	NANOMETERS
YUNITS	CD [mdeg]
Y2UNITS	HT [V]
FIRSTX	  250.0000
LASTX	  190.0000
NPOINTS	     301
FIRSTY	    -0.19226
MAXY	     3.15690
MINY	   -11.83210
XYDATA
250.0000	-0.19226	304.456
249.8000	-0.175326	304.733
249.6000	-0.188542	305.013
249.4000	-0.200982	305.297
249.2000	-0.207523	305.581
249.0000	-0.187909	305.865
248.8000	-0.184754	306.149
248.6000	-0.214653	306.434
248.4000	-0.222828	306.718
248.2000	-0.222345	307.007
248.0000	-0.220896	307.294
247.8000	-0.225068	307.582
247.6000	-0.223001	307.868
247.4000	-0.224466	308.157
247.2000	-0.246398	308.444
247.0000	-0.270005	308.734
246.8000	-0.279087	309.025
246.6000	-0.294847	309.315
246.4000	-0.319929	309.607
246.2000	-0.314334	309.897
246.0000	-0.324208	310.191
245.8000	-0.36389	310.482
245.6000	-0.391062	310.775
245.4000	-0.399704	311.072
245.2000	-0.4233	311.371
245.0000	-0.447213	311.673
244.8000	-0.457436	311.978
244.6000	-0.488218	312.284
244.4000	-0.52561	312.59
244.2000	-0.554898	312.899
244.0000	-0.586819	313.212
243.8000	-0.624391	313.527
243.6000	-0.654374	313.848
243.4000	-0.701441	314.169
243.2000	-0.755416	314.493
243.0000	-0.795093	314.82
242.8000	-0.824977	315.15
242.6000	-0.861156	315.482
242.4000	-0.893028	315.817
242.2000	-0.9335	316.155
242.0000	-0.952096	316.496
241.8000	-0.993809	316.841
241.6000	-1.04031	317.19
241.4000	-1.07971	317.544
241.2000	-1.14283	317.898
241.0000	-1.22072	318.259
240.8000	-1.31781	318.625
240.6000	-1.3742	318.994
240.4000	-1.42627	319.368
240.2000	-1.48028	319.745
240.0000	-1.53992	320.128
239.8000	-1.61209	320.515
239.6000	-1.67996	320.912
239.4000	-1.73935	321.308
239.2000	-1.80005	321.712
239.0000	-1.85665	322.119
238.8000	-1.94136	322.534
238.6000	-2.03483	322.953
238.4000	-2.12385	323.369
238.2000	-2.19997	323.792
238.0000	-2.2553	324.223
237.8000	-2.32571	324.661
237.6000	-2.38395	325.105
237.4000	-2.46512	325.555
237.2000	-2.54888	326.011
237.0000	-2.62291	326.474
236.8000	-2.66787	326.947
236.6000	-2.76039	327.424
236.4000	-2.86331	327.91
236.2000	-2.96399	328.396
236.0000	-3.03478	328.894
235.8000	-3.14482	329.396
235.6000	-3.25876	329.904
235.4000	-3.33283	330.423
235.2000	-3.42681	330.947
235.0000	-3.54315	331.475
234.8000	-3.6562	332.013
234.6000	-3.76398	332.558
234.4000	-3.84561	333.113
234.2000	-3.89212	333.674
234.0000	-3.96432	334.244
233.8000	-4.04956	334.82
233.6000	-4.15515	335.406
233.4000	-4.27625	335.997
233.2000	-4.38347	336.594
233.0000	-4.47908	337.196
232.8000	-4.58273	337.804
232.6000	-4.68877	338.42
232.4000	-4.79259	339.047
232.2000	-4.87645	339.685
232.0000	-4.95125	340.329
231.8000	-5.03485	340.994
231.6000	-5.14536	341.668
231.4000	-5.26178	342.345
231.2000	-5.34052	343.029
231.0000	-5.41976	343.718
230.8000	-5.51008	344.417
230.6000	-5.62809	345.122
230.4000	-5.72831	345.833
230.2000	-5.87464	346.552
230.0000	-5.99917	347.276
229.8000	-6.06935	348.011
229.6000	-6.13228	348.749
229.4000	-6.24647	349.495
229.2000	-6.365	350.25
229.0000	-6.44828	351.009
228.8000	-6.56105	351.776
228.6000	-6.67415	352.549
228.4000	-6.75157	353.331
228.2000	-6.8521	354.121
228.0000	-6.94288	354.919
227.8000	-7.02897	355.72
227.6000	-7.14002	356.526
227.4000	-7.23356	357.34
227.2000	-7.33712	358.161
227.0000	-7.44016	358.99
226.8000	-7.48033	359.826
226.6000	-7.56217	360.672
226.4000	-7.62563	361.524
226.2000	-7.70166	362.385
226.0000	-7.79811	363.258
225.8000	-7.93569	364.135
225.6000	-8.0525	365.019
225.4000	-8.16402	365.908
225.2000	-8.26592	366.802
225.0000	-8.38427	367.701
224.8000	-8.49482	368.611
224.6000	-8.59904	369.53
224.4000	-8.70407	370.458
224.2000	-8.80754	371.394
224.0000	-8.83465	372.339
223.8000	-8.84591	373.294
223.6000	-8.87557	374.258
223.4000	-8.90619	375.233
223.2000	-8.94792	376.217
223.0000	-9.02811	377.211
222.8000	-9.05048	378.216
222.6000	-9.06781	379.231
222.4000	-9.08975	380.255
222.2000	-9.15888	381.288
222.0000	-9.14775	382.335
221.8000	-9.16265	383.39
221.6000	-9.16809	384.454
221.4000	-9.16469	385.525
221.2000	-9.20735	386.607
221.0000	-9.23692	387.697
220.8000	-9.27931	388.797
220.6000	-9.28729	389.907
220.4000	-9.25804	391.026
220.2000	-9.26996	392.15
220.0000	-9.31193	393.288
219.8000	-9.27431	394.433
219.6000	-9.23879	395.588
219.4000	-9.20562	396.754
219.2000	-9.14808	397.926
219.0000	-9.14622	399.111
218.8000	-9.11533	400.3
218.6000	-9.09132	401.505
218.4000	-9.08962	402.713
218.2000	-9.03118	403.931
218.0000	-8.98433	405.159
217.8000	-9.0162	406.397
217.6000	-9.0038	407.644
217.4000	-8.99751	408.901
217.2000	-9.00879	410.164
217.0000	-9.02212	411.435
216.8000	-9.04689	412.716
216.6000	-9.11536	414.009
216.4000	-9.16294	415.311
216.2000	-9.19935	416.621
216.0000	-9.2542	417.941
215.8000	-9.31313	419.273
215.6000	-9.2986	420.611
215.4000	-9.32117	421.96
215.2000	-9.31801	423.32
215.0000	-9.18727	424.693
214.8000	-9.17479	426.084
214.6000	-9.08078	427.486
214.4000	-9.05613	428.906
214.2000	-9.05445	430.338
214.0000	-9.13205	431.783
213.8000	-9.23577	433.243
213.6000	-9.30181	434.723
213.4000	-9.3068	436.218
213.2000	-9.41763	437.735
213.0000	-9.52972	439.267
212.8000	-9.61542	440.82
212.6000	-9.67572	442.394
212.4000	-9.70625	443.985
212.2000	-9.81577	445.601
212.0000	-9.97944	447.238
211.8000	-10.0225	448.897
211.6000	-10.1466	450.587
211.4000	-10.2742	452.302
211.2000	-10.3965	454.044
211.0000	-10.4746	455.817
210.8000	-10.5256	457.62
210.6000	-10.5334	459.458
210.4000	-10.6182	461.332
210.2000	-10.6818	463.236
210.0000	-10.747	465.18
209.8000	-10.8755	467.164
209.6000	-11.0816	469.191
209.4000	-11.1956	471.259
209.2000	-11.2306	473.376
209.0000	-11.3386	475.544
208.8000	-11.4662	477.766
208.6000	-11.5736	480.047
208.4000	-11.7016	482.389
208.2000	-11.746	484.79
208.0000	-11.7866	487.254
207.8000	-11.8321	489.786
207.6000	-11.737	492.395
207.4000	-11.7938	495.077
207.2000	-11.6278	497.85
207.0000	-11.6483	500.703
206.8000	-11.4854	503.649
206.6000	-11.2988	506.693
206.4000	-11.1827	509.835
206.2000	-11.2677	513.083
206.0000	-11.0773	516.442
205.8000	-10.8645	519.914
205.6000	-10.6691	523.5
205.4000	-10.4838	527.206
205.2000	-10.3322	531.029
205.0000	-10.0054	534.973
204.8000	-9.69122	539.045
204.6000	-9.37822	543.23
204.4000	-9.59471	547.525
204.2000	-9.02143	551.93
204.0000	-8.58459	556.432
203.8000	-8.38484	561.016
203.6000	-8.25143	565.676
203.4000	-8.22662	570.389
203.2000	-7.98854	575.146
203.0000	-7.59445	579.924
202.8000	-7.12227	584.709
202.6000	-6.7002	589.48
202.4000	-6.41092	594.222
202.2000	-5.63907	598.916
202.0000	-5.00237	603.546
201.8000	-4.59471	608.098
201.6000	-4.59588	612.563
201.4000	-4.67027	616.931
201.2000	-4.43441	621.196
201.0000	-4.31595	625.345
200.8000	-4.00694	629.377
200.6000	-3.52288	633.274
200.4000	-2.93342	637.037
200.2000	-2.4877	640.656
200.0000	-2.18202	644.127
199.8000	-1.85571	647.444
199.6000	-1.4456	650.599
199.4000	-0.946468	653.587
199.2000	-0.875158	656.401
199.0000	-0.611028	659.043
198.8000	-0.1427	661.506
198.6000	0.210926	663.786
198.4000	0.220913	665.878
198.2000	0.203218	667.781
198.0000	0.494015	669.496
197.8000	1.3309	671.028
197.6000	1.63602	672.376
197.4000	1.28729	673.552
197.2000	1.2398	674.562
197.0000	1.58102	675.419
196.8000	1.94351	676.134
196.6000	2.09327	676.719
196.4000	2.43133	677.192
196.2000	2.40257	677.564
196.0000	2.52651	677.853
195.8000	2.40463	678.071
195.6000	2.48024	678.233
195.4000	2.16189	678.351
195.2000	2.16283	678.435
195.0000	2.28035	678.494
194.8000	2.65034	678.532
194.6000	3.15477	678.556
194.4000	3.1569	678.568
194.2000	3.12479	678.572
194.0000	3.11442	678.573
193.8000	2.80525	678.568
193.6000	2.47405	678.563
193.4000	1.95802	678.552
193.2000	1.79762	678.542
193.0000	1.89877	678.533
192.8000	1.81021	678.521
192.6000	2.04623	678.511
192.4000	2.31455	678.5
192.2000	1.81254	678.487
192.0000	1.66531	678.478
191.8000	1.39991	678.468
191.6000	1.47938	678.457
191.4000	1.51188	678.446
191.2000	1.09788	678.434
191.0000	0.465934	678.419
190.8000	0.293588	678.405
190.6000	0.280836	678.392
190.4000	0.351763	678.382
190.2000	0.201298	678.37
190.0000	0.0158495	678.356

##### Extended Information
[Comments]
Sample name	1kx8_01
Comment
User
Division
Company	EPFL

[Detailed Information]
Creation date	10.05.2017 14:51

Data array type	Linear data array * 2
Horizontal axis	Wavelength [nm]
Vertical axis(1)	CD [mdeg]
Vertical axis(2)	HT [V]
Start	250 nm
End	190 nm
Data interval	0.2 nm
Data points	301     

[Measurement Information]
Instrument Name	CD-Spectrometer
Model Name	J-815
Serial No.	A007961168

Accessory	PFD-425S
Accessory S/N	A001061180
  Temperature	19.99 C
  Control Sonsor	Holder
  Monitor Sensor	Holder
  Cell Length	10 mm

Photometric Mode	CD, HT
Measure Range	250 - 190 nm
Data pitch	0.2 nm
Sensitivity	Standard
D.I.T.	8 sec
Bandwidth	1.00 nm
Start Mode	Immediately
Scanning Speed	50 nm/min
Baseline Correction	None
Shutter Control	Auto
PMT Voltage	Auto
Accumulations	2
End Temperature.	20 C
Start Temperature.	90 C
Temperature. Interval	5 C
Ramp Rate	5 C/min

