TITLE	kx8_3_d1_Melt
DATA TYPE	
ORIGIN	JASCO
OWNER	
DATE	17/10/06
TIME	11:50:46
SPECTROMETER/DATA SYSTEM	
LOCALE	2055
RESOLUTION	
DELTAX	-0.2
XUNITS	NANOMETERS
YUNITS	CD [mdeg]
Y2UNITS	HT [V]
FIRSTX	  250.0000
LASTX	  195.0000
NPOINTS	     276
FIRSTY	    -0.22026
MAXY	     4.60747
MINY	   -23.36896
XYDATA
250.0000	-0.220259	327.17
249.8000	-0.22941	327.471
249.6000	-0.244311	327.769
249.4000	-0.252899	328.069
249.2000	-0.260129	328.37
249.0000	-0.28319	328.669
248.8000	-0.275292	328.971
248.6000	-0.294458	329.271
248.4000	-0.31007	329.574
248.2000	-0.325618	329.877
248.0000	-0.353045	330.182
247.8000	-0.365017	330.485
247.6000	-0.41407	330.789
247.4000	-0.447733	331.095
247.2000	-0.475312	331.401
247.0000	-0.50759	331.709
246.8000	-0.527033	332.017
246.6000	-0.569481	332.326
246.4000	-0.602904	332.634
246.2000	-0.63095	332.948
246.0000	-0.676544	333.26
245.8000	-0.721041	333.575
245.6000	-0.758277	333.891
245.4000	-0.818489	334.209
245.2000	-0.851561	334.533
245.0000	-0.867507	334.857
244.8000	-0.865131	335.186
244.6000	-0.905995	335.514
244.4000	-0.989385	335.846
244.2000	-1.03488	336.182
244.0000	-1.09239	336.521
243.8000	-1.13052	336.864
243.6000	-1.18388	337.21
243.4000	-1.23422	337.562
243.2000	-1.28721	337.916
243.0000	-1.34493	338.274
242.8000	-1.40674	338.639
242.6000	-1.47381	339.007
242.4000	-1.52583	339.38
242.2000	-1.60194	339.758
242.0000	-1.67123	340.143
241.8000	-1.74139	340.53
241.6000	-1.82567	340.926
241.4000	-1.92449	341.326
241.2000	-2.02541	341.73
241.0000	-2.17263	342.144
240.8000	-2.29571	342.563
240.6000	-2.37735	342.989
240.4000	-2.48643	343.419
240.2000	-2.59546	343.857
240.0000	-2.69843	344.303
239.8000	-2.82056	344.755
239.6000	-2.91968	345.215
239.4000	-3.07024	345.681
239.2000	-3.19717	346.155
239.0000	-3.34728	346.638
238.8000	-3.45979	347.129
238.6000	-3.61577	347.628
238.4000	-3.76064	348.135
238.2000	-3.90828	348.651
238.0000	-4.05414	349.177
237.8000	-4.17271	349.712
237.6000	-4.34342	350.254
237.4000	-4.53427	350.806
237.2000	-4.71364	351.367
237.0000	-4.94698	351.939
236.8000	-5.16647	352.518
236.6000	-5.39974	353.108
236.4000	-5.60475	353.707
236.2000	-5.78059	354.316
236.0000	-5.98446	354.936
235.8000	-6.19805	355.563
235.6000	-6.37812	356.2
235.4000	-6.57677	356.845
235.2000	-6.78222	357.5
235.0000	-7.01426	358.164
234.8000	-7.20067	358.838
234.6000	-7.42445	359.522
234.4000	-7.63343	360.216
234.2000	-7.83971	360.919
234.0000	-8.10489	361.631
233.8000	-8.3637	362.354
233.6000	-8.62254	363.085
233.4000	-8.87621	363.825
233.2000	-9.12432	364.575
233.0000	-9.3792	365.329
232.8000	-9.64474	366.092
232.6000	-9.85969	366.864
232.4000	-10.1031	367.643
232.2000	-10.3762	368.429
232.0000	-10.6456	369.225
231.8000	-10.9396	370.029
231.6000	-11.2681	370.84
231.4000	-11.5737	371.659
231.2000	-11.9132	372.484
231.0000	-12.1817	373.315
230.8000	-12.4404	374.153
230.6000	-12.6545	374.996
230.4000	-12.8279	375.844
230.2000	-13.018	376.697
230.0000	-13.2493	377.553
229.8000	-13.5339	378.411
229.6000	-13.8468	379.272
229.4000	-14.12	380.133
229.2000	-14.3574	380.999
229.0000	-14.641	381.869
228.8000	-14.9403	382.742
228.6000	-15.2187	383.617
228.4000	-15.4573	384.493
228.2000	-15.7251	385.373
228.0000	-16.0169	386.255
227.8000	-16.257	387.138
227.6000	-16.4545	388.021
227.4000	-16.6358	388.906
227.2000	-16.8143	389.792
227.0000	-16.9848	390.68
226.8000	-17.2205	391.569
226.6000	-17.4573	392.457
226.4000	-17.6648	393.351
226.2000	-17.8448	394.246
226.0000	-18.0404	395.145
225.8000	-18.2742	396.045
225.6000	-18.4709	396.947
225.4000	-18.5982	397.85
225.2000	-18.6754	398.752
225.0000	-18.7066	399.656
224.8000	-18.8252	400.56
224.6000	-18.932	401.468
224.4000	-19.065	402.381
224.2000	-19.206	403.295
224.0000	-19.3708	404.214
223.8000	-19.5747	405.135
223.6000	-19.7108	406.063
223.4000	-19.7953	406.994
223.2000	-19.9027	407.932
223.0000	-19.9982	408.876
222.8000	-20.0901	409.823
222.6000	-20.1986	410.778
222.4000	-20.2784	411.732
222.2000	-20.3239	412.692
222.0000	-20.3962	413.659
221.8000	-20.4484	414.629
221.6000	-20.4653	415.604
221.4000	-20.4343	416.584
221.2000	-20.4537	417.568
221.0000	-20.5675	418.559
220.8000	-20.6299	419.556
220.6000	-20.725	420.556
220.4000	-20.7916	421.563
220.2000	-20.8483	422.577
220.0000	-20.9091	423.596
219.8000	-20.9146	424.622
219.6000	-20.9519	425.653
219.4000	-20.9465	426.692
219.2000	-20.9425	427.735
219.0000	-20.8644	428.788
218.8000	-20.8924	429.848
218.6000	-20.948	430.918
218.4000	-20.945	431.993
218.2000	-20.9434	433.08
218.0000	-20.8704	434.174
217.8000	-20.8034	435.275
217.6000	-20.7751	436.386
217.4000	-20.7156	437.505
217.2000	-20.6091	438.633
217.0000	-20.5837	439.774
216.8000	-20.6591	440.924
216.6000	-20.6446	442.087
216.4000	-20.6443	443.263
216.2000	-20.6283	444.451
216.0000	-20.6573	445.655
215.8000	-20.7475	446.874
215.6000	-20.7812	448.107
215.4000	-20.7198	449.358
215.2000	-20.7132	450.626
215.0000	-20.7635	451.911
214.8000	-20.7958	453.218
214.6000	-20.7136	454.547
214.4000	-20.6067	455.895
214.2000	-20.5771	457.265
214.0000	-20.6022	458.657
213.8000	-20.5481	460.075
213.6000	-20.6151	461.516
213.4000	-20.5804	462.982
213.2000	-20.7191	464.477
213.0000	-20.8247	466
212.8000	-20.9626	467.553
212.6000	-21.0692	469.134
212.4000	-21.1148	470.749
212.2000	-21.0721	472.39
212.0000	-21.0916	474.069
211.8000	-21.2231	475.78
211.6000	-21.4201	477.525
211.4000	-21.6678	479.311
211.2000	-21.6804	481.134
211.0000	-21.7943	483
210.8000	-21.9965	484.905
210.6000	-22.0418	486.856
210.4000	-22.1266	488.847
210.2000	-22.2544	490.884
210.0000	-22.636	492.964
209.8000	-22.8344	495.092
209.6000	-22.9306	497.272
209.4000	-23.0092	499.498
209.2000	-23.0346	501.779
209.0000	-23.0227	504.113
208.8000	-23.1604	506.507
208.6000	-23.2211	508.956
208.4000	-23.202	511.471
208.2000	-23.0834	514.045
208.0000	-23.234	516.685
207.8000	-23.3244	519.392
207.6000	-23.369	522.169
207.4000	-23.2504	525.023
207.2000	-23.173	527.952
207.0000	-23.1052	530.962
206.8000	-23.0243	534.057
206.6000	-22.873	537.24
206.4000	-22.4017	540.509
206.2000	-21.9958	543.873
206.0000	-21.659	547.334
205.8000	-21.2705	550.898
205.6000	-20.6831	554.565
205.4000	-20.3085	558.334
205.2000	-19.705	562.216
205.0000	-19.2803	566.209
204.8000	-18.8632	570.314
204.6000	-18.37	574.543
204.4000	-17.9193	578.887
204.2000	-17.3293	583.347
204.0000	-16.7352	587.924
203.8000	-15.7732	592.611
203.6000	-14.8928	597.401
203.4000	-13.9397	602.291
203.2000	-12.7208	607.273
203.0000	-11.6177	612.327
202.8000	-10.3719	617.445
202.6000	-9.17958	622.61
202.4000	-8.13604	627.804
202.2000	-6.84454	633.008
202.0000	-5.83399	638.211
201.8000	-5.19786	643.388
201.6000	-5.12204	648.526
201.4000	-5.33393	653.609
201.2000	-5.07277	658.622
201.0000	-4.15594	663.553
200.8000	-3.81627	668.385
200.6000	-3.28955	673.112
200.4000	-2.46478	677.719
200.2000	-2.03093	682.191
200.0000	-1.26665	686.529
199.8000	-0.587882	690.723
199.6000	-0.139387	694.764
199.4000	0.804868	698.653
199.2000	1.45372	702.379
199.0000	1.79173	705.936
198.8000	2.16532	709.321
198.6000	1.90249	712.526
198.4000	2.36335	715.547
198.2000	3.38512	718.386
198.0000	4.03533	721.024
197.8000	4.11413	723.461
197.6000	4.46025	725.708
197.4000	4.51281	727.757
197.2000	4.60747	729.611
197.0000	4.27877	731.273
196.8000	4.37042	732.748
196.6000	4.29805	734.04
196.4000	3.8562	735.165
196.2000	3.18034	736.125
196.0000	2.31466	736.946
195.8000	1.55623	737.631
195.6000	0.902147	738.194
195.4000	0.248689	738.65
195.2000	0.126635	739.011
195.0000	0.887574	739.297

##### Extended Information
[Comments]
Sample name	kx8_3_d1_Melt
Comment
User
Division
Company	EPFL

[Detailed Information]
Creation date	06.10.2017 11:50

Data array type	Linear data array * 2
Horizontal axis	Wavelength [nm]
Vertical axis(1)	CD [mdeg]
Vertical axis(2)	HT [V]
Start	250 nm
End	195 nm
Data interval	0.2 nm
Data points	276     

[Measurement Information]
Instrument Name	CD-Spectrometer
Model Name	J-815
Serial No.	A007961168

Accessory	PFD-425S
Accessory S/N	A001061180
  Temperature	19.97 C
  Control Sonsor	Holder
  Monitor Sensor	Holder
  Cell Length	10 mm

Photometric Mode	CD, HT
Measure Range	250 - 195 nm
Data pitch	0.2 nm
Sensitivity	Standard
D.I.T.	8 sec
Bandwidth	1.00 nm
Start Mode	Immediately
Scanning Speed	50 nm/min
Baseline Correction	None
Shutter Control	Auto
PMT Voltage	Auto
Accumulations	2
End Temperature.	20 C
Start Temperature.	90 C
Temperature. Interval	2 C
Ramp Rate	2 C/min

