TITLE	kx8_3_d1_Melt
DATA TYPE	
ORIGIN	JASCO
OWNER	
DATE	17/10/06
TIME	11:50:46
SPECTROMETER/DATA SYSTEM	
LOCALE	2055
RESOLUTION	
DELTAX	-0.2
XUNITS	NANOMETERS
YUNITS	CD [mdeg]
Y2UNITS	HT [V]
FIRSTX	  250.0000
LASTX	  195.0000
NPOINTS	     276
FIRSTY	    -0.20261
MAXY	    -0.19519
MINY	   -19.50042
XYDATA
250.0000	-0.202607	327.618
249.8000	-0.19519	327.919
249.6000	-0.198067	328.222
249.4000	-0.207984	328.525
249.2000	-0.216664	328.828
249.0000	-0.225968	329.131
248.8000	-0.242566	329.435
248.6000	-0.242769	329.738
248.4000	-0.27517	330.042
248.2000	-0.296204	330.347
248.0000	-0.320922	330.652
247.8000	-0.378278	330.956
247.6000	-0.3989	331.261
247.4000	-0.418837	331.568
247.2000	-0.443856	331.876
247.0000	-0.485508	332.184
246.8000	-0.518522	332.491
246.6000	-0.536531	332.801
246.4000	-0.577576	333.109
246.2000	-0.635432	333.421
246.0000	-0.657709	333.736
245.8000	-0.679745	334.052
245.6000	-0.72595	334.368
245.4000	-0.739327	334.688
245.2000	-0.780861	335.011
245.0000	-0.829027	335.335
244.8000	-0.888201	335.663
244.6000	-0.918151	335.994
244.4000	-0.96279	336.327
244.2000	-1.00106	336.664
244.0000	-1.04077	337.003
243.8000	-1.09558	337.346
243.6000	-1.14179	337.694
243.4000	-1.1799	338.046
243.2000	-1.2543	338.402
243.0000	-1.32397	338.762
242.8000	-1.37157	339.124
242.6000	-1.45847	339.493
242.4000	-1.54489	339.866
242.2000	-1.60375	340.243
242.0000	-1.67838	340.627
241.8000	-1.75757	341.016
241.6000	-1.80858	341.409
241.4000	-1.86617	341.809
241.2000	-1.92201	342.216
241.0000	-2.0005	342.628
240.8000	-2.08721	343.047
240.6000	-2.19072	343.47
240.4000	-2.27421	343.901
240.2000	-2.376	344.34
240.0000	-2.4708	344.785
239.8000	-2.59407	345.238
239.6000	-2.66133	345.697
239.4000	-2.72009	346.162
239.2000	-2.77087	346.635
239.0000	-2.85953	347.117
238.8000	-2.9552	347.606
238.6000	-3.07912	348.105
238.4000	-3.17455	348.611
238.2000	-3.25952	349.125
238.0000	-3.36047	349.648
237.8000	-3.48823	350.182
237.6000	-3.6081	350.722
237.4000	-3.77723	351.273
237.2000	-3.90196	351.832
237.0000	-4.05034	352.399
236.8000	-4.1943	352.976
236.6000	-4.32264	353.565
236.4000	-4.49015	354.16
236.2000	-4.61183	354.766
236.0000	-4.71994	355.381
235.8000	-4.82807	356.007
235.6000	-5.00898	356.64
235.4000	-5.19202	357.282
235.2000	-5.32175	357.932
235.0000	-5.4731	358.592
234.8000	-5.63536	359.262
234.6000	-5.78323	359.942
234.4000	-5.89053	360.633
234.2000	-6.03018	361.331
234.0000	-6.18365	362.041
233.8000	-6.29301	362.76
233.6000	-6.45414	363.485
233.4000	-6.62609	364.221
233.2000	-6.78292	364.967
233.0000	-6.97878	365.718
232.8000	-7.19549	366.479
232.6000	-7.43532	367.247
232.4000	-7.63788	368.021
232.2000	-7.78078	368.808
232.0000	-7.9246	369.601
231.8000	-8.13543	370.402
231.6000	-8.33129	371.212
231.4000	-8.52515	372.03
231.2000	-8.74455	372.853
231.0000	-8.91667	373.684
230.8000	-9.05473	374.521
230.6000	-9.17441	375.365
230.4000	-9.30149	376.215
230.2000	-9.4917	377.067
230.0000	-9.72292	377.924
229.8000	-9.87832	378.785
229.6000	-10.1043	379.648
229.4000	-10.2994	380.516
229.2000	-10.4722	381.387
229.0000	-10.6107	382.262
228.8000	-10.7415	383.143
228.6000	-10.9414	384.026
228.4000	-11.1328	384.91
228.2000	-11.3695	385.798
228.0000	-11.5897	386.689
227.8000	-11.8032	387.579
227.6000	-11.9749	388.474
227.4000	-12.1204	389.369
227.2000	-12.2987	390.266
227.0000	-12.47	391.166
226.8000	-12.653	392.065
226.6000	-12.7727	392.967
226.4000	-12.925	393.873
226.2000	-12.9921	394.78
226.0000	-13.13	395.689
225.8000	-13.2292	396.602
225.6000	-13.3626	397.516
225.4000	-13.4825	398.43
225.2000	-13.5347	399.345
225.0000	-13.625	400.261
224.8000	-13.7304	401.18
224.6000	-13.8037	402.101
224.4000	-13.8772	403.026
224.2000	-13.9438	403.954
224.0000	-14.0855	404.885
223.8000	-14.2348	405.817
223.6000	-14.3291	406.757
223.4000	-14.3805	407.702
223.2000	-14.465	408.651
223.0000	-14.5344	409.606
222.8000	-14.5381	410.565
222.6000	-14.5884	411.529
222.4000	-14.6781	412.496
222.2000	-14.7824	413.465
222.0000	-14.8249	414.442
221.8000	-14.9041	415.424
221.6000	-14.9077	416.411
221.4000	-14.9173	417.404
221.2000	-14.9184	418.402
221.0000	-15.0261	419.401
220.8000	-15.0955	420.407
220.6000	-15.1314	421.42
220.4000	-15.1374	422.436
220.2000	-15.1567	423.46
220.0000	-15.219	424.489
219.8000	-15.2329	425.525
219.6000	-15.225	426.567
219.4000	-15.2177	427.617
219.2000	-15.1623	428.674
219.0000	-15.1413	429.738
218.8000	-15.1446	430.811
218.6000	-15.221	431.893
218.4000	-15.3141	432.984
218.2000	-15.3882	434.08
218.0000	-15.4096	435.19
217.8000	-15.4654	436.306
217.6000	-15.5173	437.433
217.4000	-15.5216	438.57
217.2000	-15.5177	439.719
217.0000	-15.582	440.876
216.8000	-15.6556	442.047
216.6000	-15.7304	443.23
216.4000	-15.7255	444.427
216.2000	-15.6752	445.64
216.0000	-15.7719	446.868
215.8000	-15.7955	448.112
215.6000	-15.8046	449.373
215.4000	-15.8228	450.652
215.2000	-15.7622	451.95
215.0000	-15.722	453.265
214.8000	-15.7889	454.604
214.6000	-15.7511	455.968
214.4000	-15.6642	457.355
214.2000	-15.6516	458.766
214.0000	-15.698	460.204
213.8000	-15.7689	461.667
213.6000	-15.7654	463.158
213.4000	-15.9095	464.679
213.2000	-15.9744	466.23
213.0000	-16.0249	467.814
212.8000	-16.225	469.433
212.6000	-16.4172	471.084
212.4000	-16.5916	472.77
212.2000	-16.717	474.495
212.0000	-16.8146	476.259
211.8000	-16.9136	478.061
211.6000	-16.9948	479.907
211.4000	-17.0396	481.796
211.2000	-17.036	483.733
211.0000	-17.0187	485.717
210.8000	-17.1804	487.751
210.6000	-17.4025	489.838
210.4000	-17.5065	491.979
210.2000	-17.4801	494.174
210.0000	-17.545	496.427
209.8000	-17.6263	498.74
209.6000	-17.8288	501.111
209.4000	-18.0713	503.55
209.2000	-18.266	506.055
209.0000	-18.4636	508.629
208.8000	-18.4908	511.28
208.6000	-18.5596	514.008
208.4000	-18.6874	516.818
208.2000	-18.738	519.708
208.0000	-18.8623	522.681
207.8000	-19.013	525.744
207.6000	-19.0756	528.902
207.4000	-19.2374	532.157
207.2000	-19.2667	535.514
207.0000	-19.3035	538.977
206.8000	-19.319	542.55
206.6000	-19.4698	546.236
206.4000	-19.5004	550.037
206.2000	-19.3858	553.959
206.0000	-19.0017	558.002
205.8000	-18.7447	562.171
205.6000	-18.6752	566.462
205.4000	-18.4851	570.879
205.2000	-17.9548	575.425
205.0000	-17.3679	580.094
204.8000	-17.2354	584.887
204.6000	-17.446	589.794
204.4000	-17.4268	594.812
204.2000	-17.2281	599.928
204.0000	-16.9794	605.126
203.8000	-16.7233	610.395
203.6000	-16.5856	615.719
203.4000	-15.9001	621.08
203.2000	-15.4624	626.457
203.0000	-14.6494	631.828
202.8000	-13.6607	637.17
202.6000	-12.6465	642.47
202.4000	-12.1373	647.715
202.2000	-11.9095	652.887
202.0000	-11.433	657.971
201.8000	-11.3186	662.946
201.6000	-10.8814	667.815
201.4000	-10.4053	672.561
201.2000	-10.1983	677.177
201.0000	-9.52012	681.657
200.8000	-9.1228	685.987
200.6000	-9.18984	690.157
200.4000	-8.49454	694.171
200.2000	-7.65145	698.013
200.0000	-7.28105	701.676
199.8000	-6.92325	705.163
199.6000	-6.5045	708.462
199.4000	-6.06541	711.575
199.2000	-5.52266	714.497
199.0000	-4.81359	717.225
198.8000	-4.37905	719.75
198.6000	-4.09216	722.069
198.4000	-4.70359	724.179
198.2000	-4.2031	726.088
198.0000	-3.53005	727.793
197.8000	-3.63066	729.296
197.6000	-3.50344	730.609
197.4000	-3.19131	731.75
197.2000	-2.12769	732.725
197.0000	-1.72877	733.544
196.8000	-1.38541	734.216
196.6000	-1.404	734.762
196.4000	-1.02363	735.202
196.2000	-0.517156	735.552
196.0000	-0.99726	735.827
195.8000	-1.1238	736.037
195.6000	-1.1151	736.188
195.4000	-1.10384	736.296
195.2000	-0.585249	736.373
195.0000	-0.267656	736.422

##### Extended Information
[Comments]
Sample name	kx8_3_d1_Melt
Comment
User
Division
Company	EPFL

[Detailed Information]
Creation date	06.10.2017 11:50

Data array type	Linear data array * 2
Horizontal axis	Wavelength [nm]
Vertical axis(1)	CD [mdeg]
Vertical axis(2)	HT [V]
Start	250 nm
End	195 nm
Data interval	0.2 nm
Data points	276     

[Measurement Information]
Instrument Name	CD-Spectrometer
Model Name	J-815
Serial No.	A007961168

Accessory	PFD-425S
Accessory S/N	A001061180
  Temperature	19.97 C
  Control Sonsor	Holder
  Monitor Sensor	Holder
  Cell Length	10 mm

Photometric Mode	CD, HT
Measure Range	250 - 195 nm
Data pitch	0.2 nm
Sensitivity	Standard
D.I.T.	8 sec
Bandwidth	1.00 nm
Start Mode	Immediately
Scanning Speed	50 nm/min
Baseline Correction	None
Shutter Control	Auto
PMT Voltage	Auto
Accumulations	2
End Temperature.	20 C
Start Temperature.	90 C
Temperature. Interval	2 C
Ramp Rate	2 C/min

