TITLE	kx8_3_d1_Melt
DATA TYPE	
ORIGIN	JASCO
OWNER	
DATE	17/10/06
TIME	11:50:46
SPECTROMETER/DATA SYSTEM	
LOCALE	2055
RESOLUTION	
DELTAX	-0.2
XUNITS	NANOMETERS
YUNITS	CD [mdeg]
Y2UNITS	HT [V]
FIRSTX	  250.0000
LASTX	  195.0000
NPOINTS	     276
FIRSTY	    -0.35396
MAXY	     8.45151
MINY	   -16.35661
XYDATA
250.0000	-0.353955	326.793
249.8000	-0.386378	327.095
249.6000	-0.395671	327.401
249.4000	-0.380689	327.704
249.2000	-0.415826	328.008
249.0000	-0.44605	328.314
248.8000	-0.456633	328.619
248.6000	-0.451526	328.924
248.4000	-0.50372	329.232
248.2000	-0.555052	329.537
248.0000	-0.553157	329.845
247.8000	-0.572595	330.154
247.6000	-0.60946	330.461
247.4000	-0.635709	330.77
247.2000	-0.654631	331.08
247.0000	-0.662087	331.389
246.8000	-0.653811	331.701
246.6000	-0.666771	332.012
246.4000	-0.705522	332.32
246.2000	-0.728234	332.635
246.0000	-0.712748	332.952
245.8000	-0.734642	333.268
245.6000	-0.756295	333.588
245.4000	-0.768891	333.909
245.2000	-0.788988	334.233
245.0000	-0.829729	334.559
244.8000	-0.874759	334.889
244.6000	-0.9301	335.219
244.4000	-0.987823	335.554
244.2000	-1.01866	335.892
244.0000	-1.0395	336.231
243.8000	-1.08473	336.576
243.6000	-1.1199	336.924
243.4000	-1.14886	337.276
243.2000	-1.16744	337.634
243.0000	-1.23529	337.992
242.8000	-1.3228	338.356
242.6000	-1.37486	338.725
242.4000	-1.41035	339.098
242.2000	-1.46106	339.477
242.0000	-1.52749	339.86
241.8000	-1.59486	340.247
241.6000	-1.60572	340.64
241.4000	-1.65449	341.039
241.2000	-1.71817	341.441
241.0000	-1.78684	341.853
240.8000	-1.84862	342.269
240.6000	-1.94052	342.691
240.4000	-2.02903	343.12
240.2000	-2.11131	343.555
240.0000	-2.21985	343.996
239.8000	-2.30125	344.448
239.6000	-2.36217	344.905
239.4000	-2.41765	345.366
239.2000	-2.48721	345.836
239.0000	-2.5535	346.312
238.8000	-2.6731	346.798
238.6000	-2.76142	347.29
238.4000	-2.84058	347.791
238.2000	-2.8974	348.301
238.0000	-2.95599	348.822
237.8000	-3.00237	349.349
237.6000	-3.08509	349.886
237.4000	-3.19384	350.43
237.2000	-3.31552	350.983
237.0000	-3.41445	351.547
236.8000	-3.53168	352.12
236.6000	-3.66132	352.699
236.4000	-3.76625	353.289
236.2000	-3.88762	353.889
236.0000	-4.02045	354.498
235.8000	-4.14135	355.116
235.6000	-4.26864	355.743
235.4000	-4.35353	356.379
235.2000	-4.45965	357.022
235.0000	-4.572	357.675
234.8000	-4.66915	358.34
234.6000	-4.80259	359.013
234.4000	-4.93873	359.696
234.2000	-5.00562	360.388
234.0000	-5.12456	361.091
233.8000	-5.2403	361.802
233.6000	-5.31921	362.523
233.4000	-5.39689	363.253
233.2000	-5.45196	363.992
233.0000	-5.51986	364.741
232.8000	-5.63141	365.498
232.6000	-5.75018	366.263
232.4000	-5.88222	367.036
232.2000	-5.99159	367.818
232.0000	-6.06642	368.611
231.8000	-6.21642	369.415
231.6000	-6.32005	370.227
231.4000	-6.42249	371.042
231.2000	-6.56601	371.868
231.0000	-6.69725	372.699
230.8000	-6.81267	373.54
230.6000	-6.88026	374.387
230.4000	-7.01583	375.238
230.2000	-7.07346	376.095
230.0000	-7.11051	376.96
229.8000	-7.19928	377.828
229.6000	-7.28347	378.701
229.4000	-7.36283	379.576
229.2000	-7.46402	380.455
229.0000	-7.51138	381.34
228.8000	-7.55588	382.23
228.6000	-7.58772	383.123
228.4000	-7.69376	384.021
228.2000	-7.80427	384.922
228.0000	-7.90216	385.826
227.8000	-7.92428	386.734
227.6000	-8.01168	387.645
227.4000	-8.08243	388.557
227.2000	-8.19571	389.474
227.0000	-8.28074	390.393
226.8000	-8.3973	391.314
226.6000	-8.51429	392.238
226.4000	-8.65137	393.164
226.2000	-8.77415	394.091
226.0000	-8.83735	395.022
225.8000	-8.92117	395.955
225.6000	-8.98316	396.892
225.4000	-9.00655	397.828
225.2000	-9.07371	398.764
225.0000	-9.17775	399.701
224.8000	-9.30239	400.643
224.6000	-9.34875	401.588
224.4000	-9.43763	402.535
224.2000	-9.46429	403.484
224.0000	-9.53448	404.437
223.8000	-9.56182	405.392
223.6000	-9.65732	406.354
223.4000	-9.738	407.318
223.2000	-9.76437	408.287
223.0000	-9.83377	409.264
222.8000	-9.85435	410.246
222.6000	-9.83541	411.233
222.4000	-9.85978	412.223
222.2000	-9.91165	413.215
222.0000	-9.96361	414.215
221.8000	-9.97171	415.22
221.6000	-9.97573	416.232
221.4000	-9.99763	417.245
221.2000	-10.1588	418.264
221.0000	-10.2497	419.286
220.8000	-10.2767	420.316
220.6000	-10.2072	421.351
220.4000	-10.1916	422.392
220.2000	-10.2822	423.436
220.0000	-10.2738	424.492
219.8000	-10.2345	425.552
219.6000	-10.2029	426.619
219.4000	-10.1496	427.698
219.2000	-10.1748	428.783
219.0000	-10.1934	429.876
218.8000	-10.2455	430.978
218.6000	-10.3071	432.091
218.4000	-10.3067	433.212
218.2000	-10.3059	434.345
218.0000	-10.4224	435.484
217.8000	-10.5608	436.636
217.6000	-10.6159	437.802
217.4000	-10.6306	438.979
217.2000	-10.7022	440.171
217.0000	-10.7998	441.375
216.8000	-10.8119	442.595
216.6000	-10.8602	443.832
216.4000	-10.9566	445.083
216.2000	-11.0583	446.351
216.0000	-11.1553	447.64
215.8000	-11.1983	448.95
215.6000	-11.3121	450.276
215.4000	-11.4763	451.627
215.2000	-11.5233	453.001
215.0000	-11.601	454.399
214.8000	-11.657	455.829
214.6000	-11.6768	457.285
214.4000	-11.6916	458.771
214.2000	-11.7748	460.293
214.0000	-11.9341	461.844
213.8000	-12.0851	463.429
213.6000	-12.1326	465.056
213.4000	-12.1263	466.718
213.2000	-12.2561	468.421
213.0000	-12.5035	470.168
212.8000	-12.7354	471.959
212.6000	-12.9905	473.795
212.4000	-13.1793	475.682
212.2000	-13.3566	477.617
212.0000	-13.4623	479.61
211.8000	-13.5307	481.657
211.6000	-13.6169	483.761
211.4000	-13.754	485.93
211.2000	-13.9147	488.166
211.0000	-14.1702	490.464
210.8000	-14.4244	492.836
210.6000	-14.5572	495.284
210.4000	-14.6914	497.806
210.2000	-14.7796	500.413
210.0000	-15.0955	503.104
209.8000	-15.2793	505.881
209.6000	-15.5503	508.755
209.4000	-15.7941	511.72
209.2000	-16.0219	514.783
209.0000	-15.9689	517.954
208.8000	-15.853	521.236
208.6000	-15.9235	524.63
208.4000	-16.002	528.147
208.2000	-16.1273	531.779
208.0000	-16.2141	535.534
207.8000	-16.2415	539.422
207.6000	-16.355	543.435
207.4000	-16.354	547.587
207.2000	-16.3566	551.878
207.0000	-16.1192	556.303
206.8000	-15.9077	560.868
206.6000	-15.9869	565.567
206.4000	-15.989	570.393
206.2000	-15.9578	575.344
206.0000	-16.0021	580.414
205.8000	-15.7456	585.59
205.6000	-15.5005	590.863
205.4000	-14.9794	596.216
205.2000	-14.539	601.633
205.0000	-14.2793	607.099
204.8000	-13.6134	612.594
204.6000	-12.5652	618.1
204.4000	-12.1096	623.594
204.2000	-11.7158	629.054
204.0000	-11.7904	634.461
203.8000	-11.3039	639.803
203.6000	-11.0952	645.055
203.4000	-10.4859	650.209
203.2000	-9.84935	655.256
203.0000	-8.81445	660.18
202.8000	-7.2098	664.974
202.6000	-6.17563	669.629
202.4000	-5.83051	674.133
202.2000	-5.22423	678.483
202.0000	-4.53383	682.672
201.8000	-3.90298	686.695
201.6000	-3.49067	690.54
201.4000	-3.25125	694.223
201.2000	-2.60455	697.739
201.0000	-1.22229	701.071
200.8000	-0.651979	704.195
200.6000	0.180575	707.109
200.4000	0.783749	709.811
200.2000	1.01694	712.294
200.0000	1.11443	714.556
199.8000	1.91936	716.607
199.6000	2.25169	718.434
199.4000	3.07418	720.054
199.2000	3.61628	721.471
199.0000	4.30038	722.702
198.8000	4.14313	723.753
198.6000	4.83478	724.639
198.4000	5.02046	725.375
198.2000	5.38908	725.976
198.0000	5.24403	726.451
197.8000	5.68807	726.823
197.6000	6.07133	727.11
197.4000	7.11859	727.33
197.2000	7.90495	727.491
197.0000	8.45151	727.608
196.8000	8.32616	727.685
196.6000	7.80599	727.734
196.4000	7.17717	727.761
196.2000	6.35777	727.773
196.0000	5.83526	727.781
195.8000	5.64033	727.788
195.6000	5.23947	727.787
195.4000	5.16571	727.785
195.2000	4.94679	727.781
195.0000	4.97224	727.792

##### Extended Information
[Comments]
Sample name	kx8_3_d1_Melt
Comment
User
Division
Company	EPFL

[Detailed Information]
Creation date	06.10.2017 11:50

Data array type	Linear data array * 2
Horizontal axis	Wavelength [nm]
Vertical axis(1)	CD [mdeg]
Vertical axis(2)	HT [V]
Start	250 nm
End	195 nm
Data interval	0.2 nm
Data points	276     

[Measurement Information]
Instrument Name	CD-Spectrometer
Model Name	J-815
Serial No.	A007961168

Accessory	PFD-425S
Accessory S/N	A001061180
  Temperature	19.97 C
  Control Sonsor	Holder
  Monitor Sensor	Holder
  Cell Length	10 mm

Photometric Mode	CD, HT
Measure Range	250 - 195 nm
Data pitch	0.2 nm
Sensitivity	Standard
D.I.T.	8 sec
Bandwidth	1.00 nm
Start Mode	Immediately
Scanning Speed	50 nm/min
Baseline Correction	None
Shutter Control	Auto
PMT Voltage	Auto
Accumulations	2
End Temperature.	20 C
Start Temperature.	90 C
Temperature. Interval	2 C
Ramp Rate	2 C/min

