TITLE	kx8_3_d1_Melt
DATA TYPE	
ORIGIN	JASCO
OWNER	
DATE	17/10/06
TIME	11:50:46
SPECTROMETER/DATA SYSTEM	
LOCALE	2055
RESOLUTION	
DELTAX	-0.2
XUNITS	NANOMETERS
YUNITS	CD [mdeg]
Y2UNITS	HT [V]
FIRSTX	  250.0000
LASTX	  195.0000
NPOINTS	     276
FIRSTY	    -0.28136
MAXY	     2.09427
MINY	   -17.86238
XYDATA
250.0000	-0.281355	326.738
249.8000	-0.311581	327.042
249.6000	-0.317267	327.346
249.4000	-0.343314	327.649
249.2000	-0.349937	327.954
249.0000	-0.38418	328.258
248.8000	-0.406199	328.565
248.6000	-0.42349	328.873
248.4000	-0.425452	329.179
248.2000	-0.448013	329.486
248.0000	-0.476658	329.795
247.8000	-0.479402	330.102
247.6000	-0.455998	330.412
247.4000	-0.47124	330.723
247.2000	-0.507742	331.034
247.0000	-0.535731	331.345
246.8000	-0.537149	331.658
246.6000	-0.552046	331.969
246.4000	-0.573491	332.282
246.2000	-0.606026	332.598
246.0000	-0.672444	332.915
245.8000	-0.710459	333.234
245.6000	-0.717074	333.554
245.4000	-0.738399	333.875
245.2000	-0.796251	334.201
245.0000	-0.845979	334.529
244.8000	-0.876838	334.859
244.6000	-0.948017	335.194
244.4000	-0.998521	335.53
244.2000	-1.02141	335.869
244.0000	-1.09191	336.213
243.8000	-1.16207	336.56
243.6000	-1.22081	336.91
243.4000	-1.24159	337.266
243.2000	-1.28768	337.625
243.0000	-1.34418	337.986
242.8000	-1.39108	338.356
242.6000	-1.45386	338.726
242.4000	-1.51866	339.101
242.2000	-1.608	339.483
242.0000	-1.66437	339.867
241.8000	-1.71332	340.258
241.6000	-1.78931	340.655
241.4000	-1.87414	341.055
241.2000	-1.96111	341.463
241.0000	-2.06189	341.878
240.8000	-2.13777	342.297
240.6000	-2.18028	342.722
240.4000	-2.25762	343.154
240.2000	-2.35399	343.593
240.0000	-2.44286	344.039
239.8000	-2.48366	344.493
239.6000	-2.54605	344.953
239.4000	-2.62189	345.419
239.2000	-2.70175	345.894
239.0000	-2.80508	346.376
238.8000	-2.928	346.866
238.6000	-3.00179	347.364
238.4000	-3.05189	347.868
238.2000	-3.15772	348.384
238.0000	-3.23452	348.908
237.8000	-3.31712	349.439
237.6000	-3.38254	349.98
237.4000	-3.47973	350.53
237.2000	-3.58974	351.088
237.0000	-3.66993	351.657
236.8000	-3.81124	352.235
236.6000	-3.92218	352.82
236.4000	-4.01662	353.417
236.2000	-4.10096	354.022
236.0000	-4.16969	354.638
235.8000	-4.23106	355.262
235.6000	-4.31173	355.898
235.4000	-4.39333	356.54
235.2000	-4.48039	357.193
235.0000	-4.57271	357.855
234.8000	-4.644	358.528
234.6000	-4.70197	359.21
234.4000	-4.7537	359.901
234.2000	-4.87034	360.602
234.0000	-4.993	361.312
233.8000	-5.0681	362.033
233.6000	-5.13587	362.762
233.4000	-5.23094	363.499
233.2000	-5.3358	364.246
233.0000	-5.43785	365.002
232.8000	-5.51388	365.768
232.6000	-5.58728	366.543
232.4000	-5.6198	367.326
232.2000	-5.64768	368.118
232.0000	-5.71405	368.92
231.8000	-5.80274	369.733
231.6000	-5.88756	370.553
231.4000	-6.02237	371.381
231.2000	-6.15303	372.216
231.0000	-6.22859	373.061
230.8000	-6.33862	373.915
230.6000	-6.37255	374.773
230.4000	-6.43539	375.64
230.2000	-6.52665	376.512
230.0000	-6.59877	377.389
229.8000	-6.66345	378.27
229.6000	-6.74129	379.158
229.4000	-6.83038	380.048
229.2000	-6.92839	380.944
229.0000	-6.99236	381.844
228.8000	-7.01752	382.75
228.6000	-7.13424	383.661
228.4000	-7.19578	384.575
228.2000	-7.33144	385.492
228.0000	-7.40589	386.417
227.8000	-7.50239	387.344
227.6000	-7.59796	388.271
227.4000	-7.63042	389.202
227.2000	-7.70854	390.133
227.0000	-7.80987	391.068
226.8000	-7.86195	392.009
226.6000	-8.00948	392.95
226.4000	-8.11134	393.895
226.2000	-8.18157	394.844
226.0000	-8.23017	395.792
225.8000	-8.3529	396.741
225.6000	-8.42129	397.695
225.4000	-8.50228	398.653
225.2000	-8.61371	399.608
225.0000	-8.74376	400.568
224.8000	-8.76558	401.529
224.6000	-8.72587	402.492
224.4000	-8.75141	403.461
224.2000	-8.84549	404.428
224.0000	-8.87617	405.402
223.8000	-8.93338	406.378
223.6000	-8.90196	407.359
223.4000	-8.90318	408.343
223.2000	-8.96842	409.332
223.0000	-9.04181	410.328
222.8000	-9.09304	411.33
222.6000	-9.12696	412.337
222.4000	-9.14622	413.345
222.2000	-9.26286	414.358
222.0000	-9.40104	415.378
221.8000	-9.47651	416.402
221.6000	-9.42112	417.434
221.4000	-9.43988	418.466
221.2000	-9.41753	419.505
221.0000	-9.4346	420.549
220.8000	-9.41565	421.601
220.6000	-9.47653	422.66
220.4000	-9.53055	423.725
220.2000	-9.57169	424.795
220.0000	-9.58787	425.875
219.8000	-9.54877	426.96
219.6000	-9.65633	428.052
219.4000	-9.704	429.155
219.2000	-9.72684	430.267
219.0000	-9.68919	431.391
218.8000	-9.74183	432.522
218.6000	-9.74349	433.662
218.4000	-9.66789	434.816
218.2000	-9.63901	435.98
218.0000	-9.6988	437.156
217.8000	-9.73391	438.344
217.6000	-9.74226	439.546
217.4000	-9.75057	440.76
217.2000	-9.82684	441.99
217.0000	-9.94536	443.235
216.8000	-10.0143	444.496
216.6000	-10.147	445.779
216.4000	-10.2702	447.08
216.2000	-10.3966	448.397
216.0000	-10.4493	449.738
215.8000	-10.493	451.102
215.6000	-10.4844	452.487
215.4000	-10.358	453.9
215.2000	-10.4122	455.34
215.0000	-10.5652	456.805
214.8000	-10.6939	458.306
214.6000	-10.8066	459.839
214.4000	-10.9293	461.409
214.2000	-10.9851	463.016
214.0000	-11.0558	464.661
213.8000	-11.1704	466.346
213.6000	-11.3681	468.076
213.4000	-11.523	469.847
213.2000	-11.607	471.669
213.0000	-11.6842	473.541
212.8000	-11.6692	475.465
212.6000	-11.896	477.442
212.4000	-12.2693	479.475
212.2000	-12.3674	481.57
212.0000	-12.5351	483.729
211.8000	-12.824	485.95
211.6000	-13.0375	488.246
211.4000	-13.3523	490.616
211.2000	-13.596	493.066
211.0000	-13.7531	495.595
210.8000	-14.0006	498.207
210.6000	-14.0654	500.912
210.4000	-14.1651	503.709
210.2000	-14.2871	506.602
210.0000	-14.4146	509.595
209.8000	-14.6573	512.694
209.6000	-14.7671	515.904
209.4000	-15.0243	519.229
209.2000	-15.2583	522.668
209.0000	-15.3318	526.231
208.8000	-15.5821	529.924
208.6000	-16.0728	533.742
208.4000	-16.4485	537.699
208.2000	-16.6823	541.788
208.0000	-16.7453	546.012
207.8000	-17.0798	550.375
207.6000	-17.4776	554.878
207.4000	-17.8624	559.516
207.2000	-17.7544	564.294
207.0000	-17.4642	569.201
206.8000	-17.3648	574.228
206.6000	-17.5354	579.365
206.4000	-17.1811	584.599
206.2000	-16.8749	589.915
206.0000	-16.9317	595.3
205.8000	-16.7766	600.744
205.6000	-16.4081	606.217
205.4000	-16.1605	611.705
205.2000	-15.9375	617.193
205.0000	-15.8523	622.653
204.8000	-15.9182	628.076
204.6000	-15.6302	633.446
204.4000	-15.3056	638.743
204.2000	-15.0677	643.946
204.0000	-14.634	649.038
203.8000	-13.8591	654.014
203.6000	-12.7285	658.86
203.4000	-12.0874	663.566
203.2000	-10.8374	668.127
203.0000	-10.456	672.526
202.8000	-10.1006	676.758
202.6000	-9.59195	680.822
202.4000	-9.15307	684.708
202.2000	-8.87018	688.402
202.0000	-8.03508	691.915
201.8000	-6.91899	695.236
201.6000	-6.36125	698.357
201.4000	-5.72358	701.279
201.2000	-5.24992	703.997
201.0000	-4.80437	706.502
200.8000	-4.18378	708.801
200.6000	-3.45356	710.89
200.4000	-3.16129	712.771
200.2000	-2.71243	714.445
200.0000	-2.20036	715.927
199.8000	-1.83289	717.223
199.6000	-1.489	718.341
199.4000	-1.20136	719.288
199.2000	-0.894901	720.077
199.0000	-0.735224	720.725
198.8000	-0.47765	721.25
198.6000	-0.19139	721.67
198.4000	-0.246624	721.997
198.2000	0.437398	722.256
198.0000	1.34357	722.465
197.8000	1.54029	722.619
197.6000	1.90661	722.736
197.4000	2.09427	722.814
197.2000	1.4267	722.864
197.0000	0.311596	722.902
196.8000	-0.4094	722.943
196.6000	-0.857572	722.995
196.4000	-0.203781	723.054
196.2000	0.182991	723.11
196.0000	-0.12403	723.162
195.8000	-0.839505	723.206
195.6000	-0.991058	723.237
195.4000	-1.05984	723.258
195.2000	-1.33185	723.27
195.0000	-1.1951	723.271

##### Extended Information
[Comments]
Sample name	kx8_3_d1_Melt
Comment
User
Division
Company	EPFL

[Detailed Information]
Creation date	06.10.2017 11:50

Data array type	Linear data array * 2
Horizontal axis	Wavelength [nm]
Vertical axis(1)	CD [mdeg]
Vertical axis(2)	HT [V]
Start	250 nm
End	195 nm
Data interval	0.2 nm
Data points	276     

[Measurement Information]
Instrument Name	CD-Spectrometer
Model Name	J-815
Serial No.	A007961168

Accessory	PFD-425S
Accessory S/N	A001061180
  Temperature	19.97 C
  Control Sonsor	Holder
  Monitor Sensor	Holder
  Cell Length	10 mm

Photometric Mode	CD, HT
Measure Range	250 - 195 nm
Data pitch	0.2 nm
Sensitivity	Standard
D.I.T.	8 sec
Bandwidth	1.00 nm
Start Mode	Immediately
Scanning Speed	50 nm/min
Baseline Correction	None
Shutter Control	Auto
PMT Voltage	Auto
Accumulations	2
End Temperature.	20 C
Start Temperature.	90 C
Temperature. Interval	2 C
Ramp Rate	2 C/min

