TITLE	Mota_1kx8_d02_TCEP
DATA TYPE	
ORIGIN	JASCO
OWNER	
DATE	17/07/20
TIME	11:29:53
SPECTROMETER/DATA SYSTEM	
LOCALE	2055
RESOLUTION	
DELTAX	-0.2
XUNITS	NANOMETERS
YUNITS	CD [mdeg]
Y2UNITS	HT [V]
FIRSTX	  250.0000
LASTX	  195.0000
NPOINTS	     276
FIRSTY	    -0.14011
MAXY	     2.70859
MINY	   -23.51748
XYDATA
250.0000	-0.140106	306.705
249.8000	-0.168852	306.983
249.6000	-0.207615	307.265
249.4000	-0.196012	307.547
249.2000	-0.201649	307.834
249.0000	-0.216591	308.12
248.8000	-0.241349	308.409
248.6000	-0.252298	308.699
248.4000	-0.300756	308.989
248.2000	-0.353665	309.282
248.0000	-0.40169	309.576
247.8000	-0.401575	309.868
247.6000	-0.40262	310.165
247.4000	-0.41348	310.465
247.2000	-0.451283	310.764
247.0000	-0.46786	311.069
246.8000	-0.505682	311.373
246.6000	-0.538338	311.682
246.4000	-0.585015	311.989
246.2000	-0.617934	312.302
246.0000	-0.632789	312.617
245.8000	-0.667825	312.934
245.6000	-0.729939	313.253
245.4000	-0.78462	313.578
245.2000	-0.819359	313.903
245.0000	-0.885208	314.232
244.8000	-0.943687	314.56
244.6000	-0.99103	314.896
244.4000	-1.02652	315.24
244.2000	-1.08366	315.589
244.0000	-1.15187	315.941
243.8000	-1.21079	316.301
243.6000	-1.28363	316.667
243.4000	-1.35812	317.039
243.2000	-1.43592	317.416
243.0000	-1.47202	317.795
242.8000	-1.5628	318.183
242.6000	-1.65678	318.572
242.4000	-1.76089	318.969
242.2000	-1.86164	319.375
242.0000	-1.98985	319.786
241.8000	-2.08313	320.207
241.6000	-2.16624	320.636
241.4000	-2.23942	321.072
241.2000	-2.35367	321.518
241.0000	-2.50573	321.973
240.8000	-2.65129	322.436
240.6000	-2.79635	322.905
240.4000	-2.93782	323.387
240.2000	-3.06792	323.878
240.0000	-3.18876	324.379
239.8000	-3.33088	324.893
239.6000	-3.48651	325.415
239.4000	-3.64056	325.949
239.2000	-3.81574	326.493
239.0000	-3.9837	327.05
238.8000	-4.17785	327.622
238.6000	-4.39744	328.207
238.4000	-4.57077	328.806
238.2000	-4.74046	329.423
238.0000	-4.9227	330.053
237.8000	-5.13519	330.7
237.6000	-5.3421	331.358
237.4000	-5.57343	332.03
237.2000	-5.78921	332.716
237.0000	-5.97883	333.419
236.8000	-6.18245	334.139
236.6000	-6.41979	334.877
236.4000	-6.65517	335.634
236.2000	-6.88799	336.409
236.0000	-7.12121	337.203
235.8000	-7.35617	338.013
235.6000	-7.58223	338.843
235.4000	-7.82106	339.692
235.2000	-8.0798	340.561
235.0000	-8.37087	341.448
234.8000	-8.65231	342.355
234.6000	-8.91948	343.284
234.4000	-9.168	344.232
234.2000	-9.39775	345.207
234.0000	-9.66655	346.202
233.8000	-9.94569	347.219
233.6000	-10.2148	348.259
233.4000	-10.5135	349.315
233.2000	-10.8046	350.393
233.0000	-11.106	351.492
232.8000	-11.3741	352.609
232.6000	-11.6847	353.745
232.4000	-11.969	354.902
232.2000	-12.2588	356.079
232.0000	-12.5617	357.277
231.8000	-12.8487	358.499
231.6000	-13.1712	359.74
231.4000	-13.5247	361.004
231.2000	-13.8626	362.282
231.0000	-14.1788	363.581
230.8000	-14.4913	364.9
230.6000	-14.7796	366.239
230.4000	-15.1301	367.597
230.2000	-15.4813	368.968
230.0000	-15.7768	370.352
229.8000	-16.0638	371.753
229.6000	-16.4125	373.167
229.4000	-16.7153	374.598
229.2000	-17.0432	376.042
229.0000	-17.3283	377.505
228.8000	-17.6096	378.977
228.6000	-17.8586	380.464
228.4000	-18.1625	381.962
228.2000	-18.4324	383.476
228.0000	-18.6665	385.006
227.8000	-18.9641	386.546
227.6000	-19.2884	388.096
227.4000	-19.5328	389.656
227.2000	-19.7064	391.231
227.0000	-19.9608	392.817
226.8000	-20.1986	394.417
226.6000	-20.4	396.03
226.4000	-20.617	397.655
226.2000	-20.8546	399.292
226.0000	-21.0597	400.944
225.8000	-21.2659	402.612
225.6000	-21.4326	404.292
225.4000	-21.5334	405.985
225.2000	-21.6355	407.688
225.0000	-21.7599	409.404
224.8000	-21.9371	411.135
224.6000	-22.0719	412.877
224.4000	-22.1603	414.638
224.2000	-22.2898	416.407
224.0000	-22.4368	418.196
223.8000	-22.5555	419.999
223.6000	-22.6534	421.823
223.4000	-22.7525	423.665
223.2000	-22.7967	425.527
223.0000	-22.8555	427.408
222.8000	-22.882	429.303
222.6000	-22.9959	431.22
222.4000	-23.0644	433.149
222.2000	-23.0549	435.097
222.0000	-23.134	437.064
221.8000	-23.1622	439.046
221.6000	-23.1912	441.046
221.4000	-23.2417	443.063
221.2000	-23.2415	445.097
221.0000	-23.2523	447.15
220.8000	-23.2702	449.219
220.6000	-23.2951	451.303
220.4000	-23.2767	453.402
220.2000	-23.186	455.521
220.0000	-23.1502	457.652
219.8000	-23.1289	459.803
219.6000	-23.1421	461.969
219.4000	-23.1827	464.157
219.2000	-23.2067	466.359
219.0000	-23.201	468.577
218.8000	-23.3236	470.813
218.6000	-23.3938	473.062
218.4000	-23.5112	475.33
218.2000	-23.5175	477.608
218.0000	-23.4338	479.906
217.8000	-23.4087	482.217
217.6000	-23.332	484.543
217.4000	-23.0619	486.886
217.2000	-23.0298	489.242
217.0000	-22.9396	491.611
216.8000	-22.8784	493.994
216.6000	-22.939	496.393
216.4000	-22.856	498.806
216.2000	-22.7747	501.231
216.0000	-22.6154	503.663
215.8000	-22.7061	506.118
215.6000	-22.7462	508.581
215.4000	-22.755	511.059
215.2000	-22.7542	513.554
215.0000	-22.5881	516.059
214.8000	-22.5476	518.581
214.6000	-22.6159	521.114
214.4000	-22.5015	523.658
214.2000	-22.4605	526.218
214.0000	-22.1828	528.793
213.8000	-22.1955	531.381
213.6000	-22.1848	533.98
213.4000	-22.2664	536.589
213.2000	-22.326	539.212
213.0000	-22.5475	541.846
212.8000	-22.5581	544.484
212.6000	-22.5921	547.136
212.4000	-22.7884	549.793
212.2000	-22.9227	552.463
212.0000	-22.9338	555.145
211.8000	-22.9456	557.828
211.6000	-22.7922	560.522
211.4000	-22.6482	563.221
211.2000	-22.5411	565.926
211.0000	-22.5003	568.635
210.8000	-22.7776	571.346
210.6000	-22.685	574.063
210.4000	-22.8307	576.779
210.2000	-22.5992	579.498
210.0000	-22.3446	582.215
209.8000	-22.2782	584.928
209.6000	-22.1775	587.645
209.4000	-22.0338	590.362
209.2000	-21.6996	593.075
209.0000	-21.5081	595.785
208.8000	-21.4829	598.492
208.6000	-21.421	601.19
208.4000	-21.2612	603.888
208.2000	-21.0377	606.575
208.0000	-21.0876	609.253
207.8000	-21.1643	611.922
207.6000	-20.6326	614.584
207.4000	-20.6896	617.234
207.2000	-20.2629	619.869
207.0000	-19.872	622.497
206.8000	-19.5817	625.112
206.6000	-19.3226	627.712
206.4000	-18.5979	630.297
206.2000	-17.851	632.867
206.0000	-17.5343	635.42
205.8000	-16.8404	637.951
205.6000	-15.5551	640.461
205.4000	-14.8364	642.945
205.2000	-14.559	645.408
205.0000	-14.4658	647.842
204.8000	-14.1546	650.247
204.6000	-13.751	652.623
204.4000	-13.4564	654.966
204.2000	-12.5058	657.281
204.0000	-11.6461	659.557
203.8000	-10.9353	661.794
203.6000	-10.0518	663.993
203.4000	-9.40223	666.147
203.2000	-8.84562	668.255
203.0000	-8.41205	670.308
202.8000	-8.14481	672.309
202.6000	-8.29721	674.257
202.4000	-7.28984	676.154
202.2000	-6.82221	677.989
202.0000	-6.25331	679.764
201.8000	-5.537	681.476
201.6000	-5.15819	683.125
201.4000	-4.42141	684.711
201.2000	-3.68212	686.23
201.0000	-3.35178	687.682
200.8000	-2.66425	689.068
200.6000	-2.36151	690.386
200.4000	-2.45067	691.634
200.2000	-2.00365	692.813
200.0000	-1.66044	693.925
199.8000	-1.00891	694.973
199.6000	-0.97895	695.949
199.4000	-0.812701	696.862
199.2000	-0.729422	697.712
199.0000	-0.707348	698.501
198.8000	-1.1492	699.227
198.6000	-0.489309	699.895
198.4000	0.0873978	700.505
198.2000	0.456802	701.061
198.0000	0.664746	701.562
197.8000	1.0021	702.013
197.6000	0.987412	702.413
197.4000	0.758402	702.767
197.2000	0.712072	703.077
197.0000	0.623087	703.351
196.8000	0.803356	703.589
196.6000	1.14639	703.795
196.4000	1.55197	703.972
196.2000	1.85428	704.121
196.0000	2.36586	704.245
195.8000	1.83239	704.342
195.6000	1.73962	704.419
195.4000	2.05439	704.484
195.2000	2.44518	704.537
195.0000	2.70859	704.575

##### Extended Information
[Comments]
Sample name	Mota_1kx8_d02_TCEP
Comment
User
Division
Company	EPFL

[Detailed Information]
Creation date	20.07.2017 11:29

Data array type	Linear data array * 2
Horizontal axis	Wavelength [nm]
Vertical axis(1)	CD [mdeg]
Vertical axis(2)	HT [V]
Start	250 nm
End	195 nm
Data interval	0.2 nm
Data points	276     

[Measurement Information]
Instrument Name	CD-Spectrometer
Model Name	J-815
Serial No.	A007961168

Accessory	PFD-425S
Accessory S/N	A001061180
  Temperature	24.99 C
  Control Sonsor	Holder
  Monitor Sensor	Holder
  Cell Length	10 mm

Photometric Mode	CD, HT
Measure Range	250 - 195 nm
Data pitch	0.2 nm
Sensitivity	Standard
D.I.T.	8 sec
Bandwidth	1.00 nm
Start Mode	Immediately
Scanning Speed	50 nm/min
Baseline Correction	None
Shutter Control	Auto
PMT Voltage	Auto
Accumulations	2
Solvent	PBS with TCEP
Concentration	20 umol/L
End Temperature.	25 C
Start Temperature.	90 C
Temperature. Interval	5 C
Ramp Rate	5 C/min

