TITLE	Mota_1kx8_d02_TCEP
DATA TYPE	
ORIGIN	JASCO
OWNER	
DATE	17/07/20
TIME	11:29:53
SPECTROMETER/DATA SYSTEM	
LOCALE	2055
RESOLUTION	
DELTAX	-0.2
XUNITS	NANOMETERS
YUNITS	CD [mdeg]
Y2UNITS	HT [V]
FIRSTX	  250.0000
LASTX	  195.0000
NPOINTS	     276
FIRSTY	    -0.16151
MAXY	     2.05480
MINY	   -12.17036
XYDATA
250.0000	-0.161512	307.688
249.8000	-0.184337	307.983
249.6000	-0.182767	308.28
249.4000	-0.19341	308.578
249.2000	-0.184286	308.881
249.0000	-0.202512	309.184
248.8000	-0.22615	309.488
248.6000	-0.256445	309.796
248.4000	-0.287807	310.104
248.2000	-0.319528	310.416
248.0000	-0.350959	310.729
247.8000	-0.375855	311.041
247.6000	-0.402775	311.358
247.4000	-0.422264	311.678
247.2000	-0.461715	311.999
247.0000	-0.514266	312.324
246.8000	-0.548643	312.65
246.6000	-0.564078	312.979
246.4000	-0.609651	313.31
246.2000	-0.63916	313.645
246.0000	-0.668722	313.988
245.8000	-0.699633	314.33
245.6000	-0.7089	314.677
245.4000	-0.745894	315.028
245.2000	-0.778025	315.383
245.0000	-0.833014	315.742
244.8000	-0.861588	316.105
244.6000	-0.873768	316.476
244.4000	-0.912385	316.852
244.2000	-0.983494	317.231
244.0000	-1.03293	317.616
243.8000	-1.07395	318.006
243.6000	-1.13343	318.409
243.4000	-1.19184	318.814
243.2000	-1.25621	319.227
243.0000	-1.32539	319.646
242.8000	-1.37969	320.073
242.6000	-1.45683	320.502
242.4000	-1.52545	320.94
242.2000	-1.59101	321.388
242.0000	-1.64404	321.843
241.8000	-1.69796	322.309
241.6000	-1.73566	322.783
241.4000	-1.82893	323.264
241.2000	-1.91384	323.758
241.0000	-1.99321	324.261
240.8000	-2.06957	324.775
240.6000	-2.12575	325.297
240.4000	-2.18643	325.829
240.2000	-2.26367	326.378
240.0000	-2.36423	326.932
239.8000	-2.44454	327.504
239.6000	-2.53581	328.084
239.4000	-2.62693	328.678
239.2000	-2.71766	329.286
239.0000	-2.8074	329.908
238.8000	-2.9158	330.542
238.6000	-3.00141	331.193
238.4000	-3.07964	331.859
238.2000	-3.16445	332.54
238.0000	-3.2838	333.236
237.8000	-3.40397	333.95
237.6000	-3.49646	334.681
237.4000	-3.61648	335.426
237.2000	-3.70495	336.194
237.0000	-3.80956	336.973
236.8000	-3.88038	337.776
236.6000	-3.97694	338.592
236.4000	-4.10013	339.429
236.2000	-4.22173	340.288
236.0000	-4.33081	341.17
235.8000	-4.45516	342.072
235.6000	-4.57721	342.995
235.4000	-4.70156	343.939
235.2000	-4.85596	344.905
235.0000	-5.01922	345.892
234.8000	-5.13758	346.903
234.6000	-5.23829	347.936
234.4000	-5.36261	348.994
234.2000	-5.45474	350.08
234.0000	-5.56944	351.192
233.8000	-5.72282	352.329
233.6000	-5.83288	353.488
233.4000	-5.97544	354.673
233.2000	-6.11796	355.886
233.0000	-6.2459	357.122
232.8000	-6.40072	358.379
232.6000	-6.53523	359.661
232.4000	-6.67781	360.967
232.2000	-6.82316	362.303
232.0000	-6.96838	363.666
231.8000	-7.08022	365.062
231.6000	-7.22616	366.478
231.4000	-7.36689	367.923
231.2000	-7.50153	369.394
231.0000	-7.65333	370.893
230.8000	-7.79013	372.419
230.6000	-7.98919	373.969
230.4000	-8.0857	375.546
230.2000	-8.21355	377.147
230.0000	-8.36379	378.773
229.8000	-8.48777	380.422
229.6000	-8.63403	382.094
229.4000	-8.74948	383.788
229.2000	-8.83203	385.504
229.0000	-8.95689	387.245
228.8000	-9.07168	389.005
228.6000	-9.2068	390.786
228.4000	-9.31613	392.589
228.2000	-9.42454	394.417
228.0000	-9.57128	396.264
227.8000	-9.70051	398.131
227.6000	-9.83945	400.017
227.4000	-9.98578	401.919
227.2000	-10.0726	403.842
227.0000	-10.2343	405.784
226.8000	-10.3879	407.742
226.6000	-10.4858	409.724
226.4000	-10.5792	411.722
226.2000	-10.7254	413.743
226.0000	-10.7799	415.785
225.8000	-10.8371	417.848
225.6000	-10.9223	419.925
225.4000	-10.9993	422.02
225.2000	-11.1171	424.127
225.0000	-11.305	426.252
224.8000	-11.4106	428.397
224.6000	-11.4166	430.556
224.4000	-11.4934	432.734
224.2000	-11.5541	434.933
224.0000	-11.5404	437.148
223.8000	-11.6269	439.381
223.6000	-11.7224	441.633
223.4000	-11.7934	443.902
223.2000	-11.8675	446.191
223.0000	-11.9489	448.499
222.8000	-11.9726	450.831
222.6000	-12.0662	453.18
222.4000	-12.0296	455.543
222.2000	-12.1277	457.926
222.0000	-12.1338	460.325
221.8000	-12.1704	462.743
221.6000	-12.1379	465.177
221.4000	-12.0533	467.628
221.2000	-11.9331	470.094
221.0000	-11.977	472.573
220.8000	-11.961	475.068
220.6000	-12.0042	477.577
220.4000	-11.954	480.1
220.2000	-11.9806	482.636
220.0000	-11.9886	485.186
219.8000	-12.0454	487.747
219.6000	-11.9691	490.324
219.4000	-12.0643	492.908
219.2000	-12.0211	495.504
219.0000	-11.9986	498.114
218.8000	-11.9553	500.731
218.6000	-11.9135	503.362
218.4000	-11.7342	506.003
218.2000	-11.4628	508.649
218.0000	-11.3509	511.307
217.8000	-11.1741	513.974
217.6000	-11.0819	516.644
217.4000	-11.0462	519.32
217.2000	-11.0616	522
217.0000	-11.1105	524.686
216.8000	-11.0276	527.382
216.6000	-10.8467	530.082
216.4000	-10.7796	532.79
216.2000	-10.6302	535.491
216.0000	-10.3705	538.202
215.8000	-10.2566	540.914
215.6000	-10.2187	543.631
215.4000	-10.1455	546.352
215.2000	-10.0058	549.076
215.0000	-10.2999	551.796
214.8000	-10.2714	554.52
214.6000	-10.1925	557.244
214.4000	-10.413	559.972
214.2000	-10.5809	562.699
214.0000	-10.7969	565.427
213.8000	-10.7392	568.159
213.6000	-10.92	570.887
213.4000	-10.8439	573.615
213.2000	-10.6868	576.343
213.0000	-10.6184	579.063
212.8000	-10.4258	581.782
212.6000	-10.5083	584.496
212.4000	-10.6389	587.202
212.2000	-10.6209	589.906
212.0000	-10.4757	592.601
211.8000	-10.6001	595.288
211.6000	-10.8297	597.967
211.4000	-11.1404	600.639
211.2000	-11.5119	603.297
211.0000	-11.5931	605.942
210.8000	-11.4873	608.581
210.6000	-11.3196	611.206
210.4000	-11.3727	613.815
210.2000	-11.1854	616.41
210.0000	-10.8598	618.985
209.8000	-10.8602	621.541
209.6000	-11.0517	624.077
209.4000	-11.3294	626.595
209.2000	-11.6377	629.085
209.0000	-11.4893	631.552
208.8000	-11.2007	633.993
208.6000	-11.0645	636.407
208.4000	-10.6827	638.796
208.2000	-10.2595	641.151
208.0000	-9.97114	643.47
207.8000	-9.47689	645.756
207.6000	-8.67247	648.01
207.4000	-7.98686	650.221
207.2000	-8.06579	652.388
207.0000	-7.93468	654.51
206.8000	-7.90607	656.593
206.6000	-7.68986	658.626
206.4000	-7.68967	660.609
206.2000	-7.46073	662.545
206.0000	-7.05465	664.429
205.8000	-6.73575	666.257
205.6000	-6.4352	668.032
205.4000	-6.32148	669.749
205.2000	-6.03024	671.407
205.0000	-5.96709	673.003
204.8000	-5.83825	674.536
204.6000	-4.6637	676.011
204.4000	-4.68868	677.421
204.2000	-4.87324	678.766
204.0000	-5.09973	680.05
203.8000	-4.95029	681.269
203.6000	-4.81685	682.425
203.4000	-4.28274	683.52
203.2000	-3.991	684.551
203.0000	-3.42615	685.518
202.8000	-2.82129	686.427
202.6000	-2.12872	687.278
202.4000	-2.07105	688.068
202.2000	-2.0177	688.804
202.0000	-2.13199	689.481
201.8000	-2.12958	690.104
201.6000	-1.86526	690.68
201.4000	-1.79145	691.206
201.2000	-1.78353	691.682
201.0000	-1.62317	692.113
200.8000	-1.80215	692.499
200.6000	-1.69582	692.848
200.4000	-1.31482	693.16
200.2000	-1.20465	693.434
200.0000	-1.20954	693.675
199.8000	-0.965506	693.885
199.6000	-0.493688	694.067
199.4000	-0.433607	694.221
199.2000	-0.494728	694.352
199.0000	-0.893245	694.462
198.8000	-1.15816	694.552
198.6000	-1.63278	694.623
198.4000	-1.73952	694.681
198.2000	-1.1671	694.731
198.0000	-0.800734	694.769
197.8000	-0.180884	694.798
197.6000	0.790061	694.821
197.4000	1.72124	694.837
197.2000	1.57691	694.842
197.0000	2.0548	694.846
196.8000	1.44053	694.84
196.6000	1.38061	694.836
196.4000	1.87272	694.833
196.2000	1.62272	694.825
196.0000	1.21208	694.815
195.8000	1.53035	694.808
195.6000	1.34185	694.798
195.4000	1.25318	694.793
195.2000	1.33023	694.797
195.0000	1.1144	694.823

##### Extended Information
[Comments]
Sample name	Mota_1kx8_d02_TCEP
Comment
User
Division
Company	EPFL

[Detailed Information]
Creation date	20.07.2017 11:29

Data array type	Linear data array * 2
Horizontal axis	Wavelength [nm]
Vertical axis(1)	CD [mdeg]
Vertical axis(2)	HT [V]
Start	250 nm
End	195 nm
Data interval	0.2 nm
Data points	276     

[Measurement Information]
Instrument Name	CD-Spectrometer
Model Name	J-815
Serial No.	A007961168

Accessory	PFD-425S
Accessory S/N	A001061180
  Temperature	24.99 C
  Control Sonsor	Holder
  Monitor Sensor	Holder
  Cell Length	10 mm

Photometric Mode	CD, HT
Measure Range	250 - 195 nm
Data pitch	0.2 nm
Sensitivity	Standard
D.I.T.	8 sec
Bandwidth	1.00 nm
Start Mode	Immediately
Scanning Speed	50 nm/min
Baseline Correction	None
Shutter Control	Auto
PMT Voltage	Auto
Accumulations	2
Solvent	PBS with TCEP
Concentration	20 umol/L
End Temperature.	25 C
Start Temperature.	90 C
Temperature. Interval	5 C
Ramp Rate	5 C/min

