TITLE	Mota_1kx8_d02_TCEP
DATA TYPE	
ORIGIN	JASCO
OWNER	
DATE	17/07/20
TIME	11:29:53
SPECTROMETER/DATA SYSTEM	
LOCALE	2055
RESOLUTION	
DELTAX	-0.2
XUNITS	NANOMETERS
YUNITS	CD [mdeg]
Y2UNITS	HT [V]
FIRSTX	  250.0000
LASTX	  195.0000
NPOINTS	     276
FIRSTY	    -0.27375
MAXY	     1.09986
MINY	   -10.72587
XYDATA
250.0000	-0.273746	307.909
249.8000	-0.283683	308.212
249.6000	-0.304763	308.515
249.4000	-0.312371	308.823
249.2000	-0.338542	309.136
249.0000	-0.369675	309.447
248.8000	-0.380978	309.766
248.6000	-0.386903	310.083
248.4000	-0.416808	310.402
248.2000	-0.461295	310.722
248.0000	-0.486374	311.044
247.8000	-0.508325	311.37
247.6000	-0.531818	311.697
247.4000	-0.562309	312.03
247.2000	-0.592212	312.367
247.0000	-0.595542	312.702
246.8000	-0.613343	313.043
246.6000	-0.64908	313.386
246.4000	-0.663719	313.728
246.2000	-0.674317	314.081
246.0000	-0.727438	314.433
245.8000	-0.799378	314.791
245.6000	-0.832932	315.15
245.4000	-0.853437	315.517
245.2000	-0.890982	315.891
245.0000	-0.938241	316.271
244.8000	-0.980533	316.656
244.6000	-1.01716	317.047
244.4000	-1.05052	317.442
244.2000	-1.11163	317.844
244.0000	-1.15462	318.252
243.8000	-1.2173	318.663
243.6000	-1.27206	319.085
243.4000	-1.3341	319.514
243.2000	-1.4088	319.951
243.0000	-1.46379	320.394
242.8000	-1.51061	320.844
242.6000	-1.5547	321.298
242.4000	-1.62352	321.765
242.2000	-1.70614	322.237
242.0000	-1.76561	322.722
241.8000	-1.82172	323.213
241.6000	-1.83892	323.717
241.4000	-1.9026	324.232
241.2000	-1.96088	324.755
241.0000	-2.00391	325.295
240.8000	-2.09351	325.841
240.6000	-2.17852	326.397
240.4000	-2.2644	326.967
240.2000	-2.38512	327.548
240.0000	-2.48048	328.143
239.8000	-2.55695	328.753
239.6000	-2.655	329.376
239.4000	-2.73461	330.01
239.2000	-2.79313	330.658
239.0000	-2.85909	331.323
238.8000	-2.93975	332.002
238.6000	-3.01932	332.697
238.4000	-3.10385	333.403
238.2000	-3.17807	334.127
238.0000	-3.26686	334.869
237.8000	-3.35024	335.627
237.6000	-3.45934	336.403
237.4000	-3.5623	337.196
237.2000	-3.65104	338.009
237.0000	-3.74092	338.841
236.8000	-3.81936	339.693
236.6000	-3.92043	340.562
236.4000	-4.03096	341.454
236.2000	-4.13938	342.367
236.0000	-4.28243	343.306
235.8000	-4.41383	344.261
235.6000	-4.5098	345.241
235.4000	-4.61501	346.242
235.2000	-4.73269	347.269
235.0000	-4.84649	348.313
234.8000	-4.94909	349.382
234.6000	-5.05997	350.478
234.4000	-5.18375	351.597
234.2000	-5.28762	352.746
234.0000	-5.38269	353.92
233.8000	-5.50557	355.118
233.6000	-5.61117	356.344
233.4000	-5.71007	357.597
233.2000	-5.84244	358.873
233.0000	-5.95787	360.178
232.8000	-6.03865	361.509
232.6000	-6.17765	362.868
232.4000	-6.28954	364.255
232.2000	-6.40394	365.671
232.0000	-6.53831	367.114
231.8000	-6.67266	368.589
231.6000	-6.80416	370.095
231.4000	-6.92197	371.626
231.2000	-7.08766	373.188
231.0000	-7.188	374.78
230.8000	-7.29503	376.4
230.6000	-7.42186	378.048
230.4000	-7.43333	379.723
230.2000	-7.52943	381.422
230.0000	-7.60915	383.149
229.8000	-7.7147	384.9
229.6000	-7.78131	386.677
229.4000	-7.86282	388.478
229.2000	-7.91016	390.306
229.0000	-7.98335	392.158
228.8000	-8.06312	394.038
228.6000	-8.16972	395.937
228.4000	-8.27416	397.864
228.2000	-8.3772	399.815
228.0000	-8.40761	401.788
227.8000	-8.48996	403.78
227.6000	-8.63056	405.794
227.4000	-8.75626	407.826
227.2000	-8.89622	409.885
227.0000	-8.97448	411.965
226.8000	-9.05603	414.067
226.6000	-9.08381	416.19
226.4000	-9.13175	418.328
226.2000	-9.19568	420.492
226.0000	-9.34006	422.675
225.8000	-9.41074	424.879
225.6000	-9.42819	427.102
225.4000	-9.46462	429.341
225.2000	-9.46341	431.599
225.0000	-9.37188	433.875
224.8000	-9.48819	436.17
224.6000	-9.58638	438.479
224.4000	-9.69455	440.812
224.2000	-9.73547	443.159
224.0000	-9.61995	445.528
223.8000	-9.7608	447.916
223.6000	-9.90452	450.319
223.4000	-9.9131	452.751
223.2000	-9.96697	455.2
223.0000	-10.1049	457.668
222.8000	-10.0224	460.16
222.6000	-10.0895	462.665
222.4000	-10.1637	465.184
222.2000	-10.1446	467.72
222.0000	-10.0903	470.271
221.8000	-10.1088	472.838
221.6000	-10.1297	475.424
221.4000	-10.284	478.024
221.2000	-10.53	480.641
221.0000	-10.5805	483.268
220.8000	-10.5701	485.913
220.6000	-10.5752	488.566
220.4000	-10.5281	491.231
220.2000	-10.5425	493.905
220.0000	-10.5044	496.595
219.8000	-10.4731	499.296
219.6000	-10.4143	502.005
219.4000	-10.3693	504.725
219.2000	-10.393	507.447
219.0000	-10.4473	510.18
218.8000	-10.4401	512.919
218.6000	-10.6076	515.667
218.4000	-10.7259	518.419
218.2000	-10.616	521.175
218.0000	-10.4655	523.936
217.8000	-10.4164	526.699
217.6000	-10.4278	529.469
217.4000	-10.3458	532.241
217.2000	-10.4192	535.011
217.0000	-10.3841	537.786
216.8000	-10.5508	540.554
216.6000	-10.3813	543.329
216.4000	-10.2053	546.099
216.2000	-10.1899	548.867
216.0000	-10.2058	551.632
215.8000	-10.1301	554.403
215.6000	-9.9652	557.167
215.4000	-10.0442	559.929
215.2000	-10.0896	562.689
215.0000	-9.96247	565.449
214.8000	-9.87348	568.209
214.6000	-9.71839	570.96
214.4000	-9.64489	573.713
214.2000	-10.0342	576.455
214.0000	-10.2509	579.197
213.8000	-10.2115	581.933
213.6000	-10.0104	584.665
213.4000	-10.2033	587.388
213.2000	-10.4221	590.101
213.0000	-10.4282	592.809
212.8000	-10.4995	595.506
212.6000	-10.3232	598.193
212.4000	-10.2437	600.866
212.2000	-10.1946	603.53
212.0000	-10.4171	606.181
211.8000	-10.5352	608.816
211.6000	-10.4789	611.441
211.4000	-10.2614	614.053
211.2000	-9.88139	616.645
211.0000	-9.7003	619.214
210.8000	-9.77276	621.759
210.6000	-9.84484	624.284
210.4000	-9.83234	626.787
210.2000	-9.83698	629.265
210.0000	-9.46871	631.714
209.8000	-9.46919	634.135
209.6000	-9.58833	636.524
209.4000	-9.83218	638.881
209.2000	-9.85064	641.202
209.0000	-9.84494	643.487
208.8000	-10.2479	645.735
208.6000	-9.95032	647.943
208.4000	-9.58038	650.108
208.2000	-9.15601	652.223
208.0000	-8.92486	654.289
207.8000	-9.05661	656.303
207.6000	-8.41918	658.268
207.4000	-7.92852	660.179
207.2000	-7.62714	662.034
207.0000	-7.71912	663.83
206.8000	-7.35839	665.564
206.6000	-6.78636	667.242
206.4000	-6.36267	668.86
206.2000	-5.97078	670.413
206.0000	-5.33001	671.903
205.8000	-5.10413	673.335
205.6000	-4.48414	674.702
205.4000	-3.89571	676.002
205.2000	-3.40917	677.237
205.0000	-3.61317	678.405
204.8000	-3.66803	679.508
204.6000	-3.62667	680.551
204.4000	-3.68048	681.521
204.2000	-3.54491	682.443
204.0000	-3.53682	683.301
203.8000	-3.64223	684.1
203.6000	-3.06977	684.844
203.4000	-3.17551	685.526
203.2000	-3.34252	686.151
203.0000	-3.29772	686.731
202.8000	-2.78024	687.26
202.6000	-2.68926	687.74
202.4000	-2.39175	688.177
202.2000	-1.90352	688.565
202.0000	-0.956424	688.922
201.8000	-0.438574	689.236
201.6000	-0.433722	689.513
201.4000	-0.981198	689.753
201.2000	-0.647968	689.967
201.0000	-0.657133	690.151
200.8000	-0.712382	690.31
200.6000	-0.459073	690.444
200.4000	-0.424381	690.56
200.2000	-0.177762	690.655
200.0000	-0.0413074	690.735
199.8000	-0.00740948	690.799
199.6000	-0.155171	690.849
199.4000	-0.275948	690.891
199.2000	-0.298746	690.919
199.0000	-0.654966	690.939
198.8000	-0.869043	690.955
198.6000	-1.04793	690.962
198.4000	-0.608085	690.967
198.2000	-0.218084	690.969
198.0000	-0.0591248	690.964
197.8000	0.359319	690.968
197.6000	0.354726	690.96
197.4000	0.331472	690.947
197.2000	0.650417	690.937
197.0000	0.785783	690.924
196.8000	1.0833	690.912
196.6000	0.902633	690.906
196.4000	0.797856	690.892
196.2000	0.910517	690.879
196.0000	0.587024	690.862
195.8000	1.09986	690.85
195.6000	0.98703	690.841
195.4000	0.855388	690.825
195.2000	0.089744	690.807
195.0000	-0.800482	690.787

##### Extended Information
[Comments]
Sample name	Mota_1kx8_d02_TCEP
Comment
User
Division
Company	EPFL

[Detailed Information]
Creation date	20.07.2017 11:29

Data array type	Linear data array * 2
Horizontal axis	Wavelength [nm]
Vertical axis(1)	CD [mdeg]
Vertical axis(2)	HT [V]
Start	250 nm
End	195 nm
Data interval	0.2 nm
Data points	276     

[Measurement Information]
Instrument Name	CD-Spectrometer
Model Name	J-815
Serial No.	A007961168

Accessory	PFD-425S
Accessory S/N	A001061180
  Temperature	24.99 C
  Control Sonsor	Holder
  Monitor Sensor	Holder
  Cell Length	10 mm

Photometric Mode	CD, HT
Measure Range	250 - 195 nm
Data pitch	0.2 nm
Sensitivity	Standard
D.I.T.	8 sec
Bandwidth	1.00 nm
Start Mode	Immediately
Scanning Speed	50 nm/min
Baseline Correction	None
Shutter Control	Auto
PMT Voltage	Auto
Accumulations	2
Solvent	PBS with TCEP
Concentration	20 umol/L
End Temperature.	25 C
Start Temperature.	90 C
Temperature. Interval	5 C
Ramp Rate	5 C/min

