TITLE	Mota_1kx8_d06_melting
DATA TYPE	
ORIGIN	JASCO
OWNER	
DATE	17/07/12
TIME	10:26:23
SPECTROMETER/DATA SYSTEM	
LOCALE	2055
RESOLUTION	
DELTAX	-0.2
XUNITS	NANOMETERS
YUNITS	CD [mdeg]
Y2UNITS	HT [V]
FIRSTX	  250.0000
LASTX	  195.0000
NPOINTS	     276
FIRSTY	    -0.14043
MAXY	     4.49667
MINY	   -16.87026
XYDATA
250.0000	-0.140425	307.468
249.8000	-0.179503	307.742
249.6000	-0.17307	308.017
249.4000	-0.149592	308.293
249.2000	-0.14476	308.571
249.0000	-0.128261	308.849
248.8000	-0.138081	309.133
248.6000	-0.153383	309.412
248.4000	-0.179742	309.692
248.2000	-0.220141	309.974
248.0000	-0.247743	310.256
247.8000	-0.237338	310.54
247.6000	-0.250903	310.824
247.4000	-0.258863	311.11
247.2000	-0.271856	311.401
247.0000	-0.292474	311.689
246.8000	-0.320068	311.979
246.6000	-0.3797	312.269
246.4000	-0.40481	312.561
246.2000	-0.439317	312.855
246.0000	-0.484386	313.148
245.8000	-0.504076	313.447
245.6000	-0.538952	313.744
245.4000	-0.584524	314.043
245.2000	-0.626066	314.348
245.0000	-0.671624	314.655
244.8000	-0.719118	314.966
244.6000	-0.764659	315.28
244.4000	-0.813068	315.598
244.2000	-0.868679	315.916
244.0000	-0.918168	316.242
243.8000	-0.968121	316.57
243.6000	-1.02616	316.903
243.4000	-1.06239	317.24
243.2000	-1.06989	317.579
243.0000	-1.1196	317.923
242.8000	-1.18741	318.272
242.6000	-1.24793	318.623
242.4000	-1.29471	318.982
242.2000	-1.33732	319.341
242.0000	-1.37501	319.709
241.8000	-1.42458	320.084
241.6000	-1.46912	320.461
241.4000	-1.52285	320.845
241.2000	-1.59932	321.233
241.0000	-1.6605	321.629
240.8000	-1.72245	322.028
240.6000	-1.81299	322.432
240.4000	-1.91047	322.844
240.2000	-1.96426	323.263
240.0000	-2.01403	323.689
239.8000	-2.07801	324.121
239.6000	-2.16588	324.563
239.4000	-2.24924	325.009
239.2000	-2.32634	325.465
239.0000	-2.41426	325.93
238.8000	-2.49397	326.406
238.6000	-2.54401	326.892
238.4000	-2.64763	327.384
238.2000	-2.74196	327.886
238.0000	-2.83811	328.397
237.8000	-2.91475	328.917
237.6000	-2.99362	329.452
237.4000	-3.07701	329.989
237.2000	-3.15981	330.543
237.0000	-3.25819	331.108
236.8000	-3.33274	331.681
236.6000	-3.43085	332.271
236.4000	-3.53532	332.869
236.2000	-3.62322	333.481
236.0000	-3.74054	334.105
235.8000	-3.84945	334.743
235.6000	-3.94589	335.393
235.4000	-4.06427	336.055
235.2000	-4.17732	336.731
235.0000	-4.29099	337.423
234.8000	-4.39776	338.127
234.6000	-4.47556	338.847
234.4000	-4.61123	339.587
234.2000	-4.75268	340.339
234.0000	-4.86203	341.108
233.8000	-4.93153	341.894
233.6000	-5.059	342.693
233.4000	-5.14582	343.513
233.2000	-5.26225	344.346
233.0000	-5.38081	345.195
232.8000	-5.50106	346.056
232.6000	-5.61146	346.928
232.4000	-5.71804	347.82
232.2000	-5.81973	348.724
232.0000	-5.93572	349.646
231.8000	-6.06238	350.584
231.6000	-6.16097	351.538
231.4000	-6.26055	352.507
231.2000	-6.39652	353.49
231.0000	-6.5099	354.484
230.8000	-6.58716	355.491
230.6000	-6.71547	356.508
230.4000	-6.83457	357.54
230.2000	-6.97895	358.574
230.0000	-7.09481	359.62
229.8000	-7.20967	360.676
229.6000	-7.29822	361.739
229.4000	-7.404	362.808
229.2000	-7.48636	363.877
229.0000	-7.60735	364.957
228.8000	-7.77483	366.039
228.6000	-7.90301	367.124
228.4000	-7.9865	368.212
228.2000	-8.07638	369.304
228.0000	-8.21828	370.394
227.8000	-8.32502	371.481
227.6000	-8.38098	372.567
227.4000	-8.49474	373.653
227.2000	-8.67115	374.735
227.0000	-8.79942	375.813
226.8000	-8.92853	376.887
226.6000	-9.04373	377.957
226.4000	-9.14723	379.022
226.2000	-9.22876	380.084
226.0000	-9.35875	381.141
225.8000	-9.43797	382.189
225.6000	-9.55261	383.233
225.4000	-9.66988	384.269
225.2000	-9.77861	385.293
225.0000	-9.8755	386.306
224.8000	-9.97779	387.31
224.6000	-10.0866	388.307
224.4000	-10.2121	389.294
224.2000	-10.3106	390.273
224.0000	-10.3617	391.244
223.8000	-10.4117	392.207
223.6000	-10.4209	393.163
223.4000	-10.4719	394.108
223.2000	-10.5374	395.044
223.0000	-10.5904	395.974
222.8000	-10.7074	396.894
222.6000	-10.7166	397.811
222.4000	-10.7861	398.717
222.2000	-10.8091	399.618
222.0000	-10.8654	400.507
221.8000	-10.9732	401.391
221.6000	-11.061	402.269
221.4000	-11.0637	403.14
221.2000	-11.0804	404.009
221.0000	-11.1362	404.874
220.8000	-11.1783	405.731
220.6000	-11.2036	406.586
220.4000	-11.1919	407.437
220.2000	-11.1662	408.279
220.0000	-11.1698	409.127
219.8000	-11.1809	409.97
219.6000	-11.2474	410.812
219.4000	-11.222	411.658
219.2000	-11.2154	412.502
219.0000	-11.215	413.344
218.8000	-11.2231	414.186
218.6000	-11.2886	415.028
218.4000	-11.3213	415.877
218.2000	-11.3225	416.729
218.0000	-11.2736	417.586
217.8000	-11.2153	418.45
217.6000	-11.1809	419.319
217.4000	-11.204	420.19
217.2000	-11.3076	421.07
217.0000	-11.4387	421.956
216.8000	-11.4696	422.857
216.6000	-11.5528	423.769
216.4000	-11.5634	424.696
216.2000	-11.5679	425.642
216.0000	-11.6132	426.599
215.8000	-11.6923	427.576
215.6000	-11.7494	428.57
215.4000	-11.7851	429.585
215.2000	-11.8274	430.623
215.0000	-11.8227	431.683
214.8000	-11.8751	432.77
214.6000	-12.0128	433.88
214.4000	-12.0858	435.025
214.2000	-12.1432	436.198
214.0000	-12.2801	437.408
213.8000	-12.3263	438.657
213.6000	-12.4862	439.945
213.4000	-12.5526	441.278
213.2000	-12.623	442.649
213.0000	-12.7359	444.067
212.8000	-12.855	445.533
212.6000	-13.0312	447.052
212.4000	-13.1519	448.629
212.2000	-13.2049	450.263
212.0000	-13.2483	451.965
211.8000	-13.3029	453.728
211.6000	-13.4999	455.559
211.4000	-13.6782	457.466
211.2000	-13.9032	459.449
211.0000	-14.1365	461.519
210.8000	-14.404	463.67
210.6000	-14.4733	465.915
210.4000	-14.4934	468.259
210.2000	-14.62	470.702
210.0000	-14.78	473.25
209.8000	-15.028	475.914
209.6000	-15.1545	478.691
209.4000	-15.3255	481.585
209.2000	-15.4486	484.605
209.0000	-15.6863	487.762
208.8000	-15.7237	491.06
208.6000	-15.8669	494.502
208.4000	-16.2514	498.101
208.2000	-16.336	501.864
208.0000	-16.5214	505.78
207.8000	-16.6861	509.868
207.6000	-16.6619	514.133
207.4000	-16.6914	518.576
207.2000	-16.8703	523.197
207.0000	-16.7571	527.994
206.8000	-16.6349	532.972
206.6000	-16.5333	538.125
206.4000	-16.2869	543.444
206.2000	-16.0228	548.923
206.0000	-15.9381	554.544
205.8000	-16.1241	560.296
205.6000	-15.8048	566.164
205.4000	-15.2152	572.124
205.2000	-15.1269	578.148
205.0000	-14.3595	584.215
204.8000	-13.5532	590.301
204.6000	-12.9059	596.378
204.4000	-12.0749	602.403
204.2000	-11.2014	608.396
204.0000	-10.3309	614.311
203.8000	-9.96775	620.133
203.6000	-9.44376	625.843
203.4000	-9.15461	631.436
203.2000	-8.28029	636.894
203.0000	-7.9095	642.201
202.8000	-7.60065	647.362
202.6000	-7.24973	652.362
202.4000	-6.60767	657.189
202.2000	-5.9676	661.843
202.0000	-5.77821	666.303
201.8000	-5.44931	670.566
201.6000	-4.67367	674.62
201.4000	-3.82345	678.468
201.2000	-2.95677	682.096
201.0000	-2.29211	685.495
200.8000	-2.06263	688.652
200.6000	-1.18114	691.573
200.4000	-0.530293	694.256
200.2000	-0.297853	696.693
200.0000	-0.346202	698.884
199.8000	-0.424395	700.837
199.6000	-0.132102	702.555
199.4000	0.912717	704.048
199.2000	1.4007	705.324
199.0000	1.66478	706.395
198.8000	1.93229	707.278
198.6000	2.39398	707.995
198.4000	2.89542	708.568
198.2000	3.03673	709.015
198.0000	2.92985	709.353
197.8000	2.71932	709.622
197.6000	2.70394	709.81
197.4000	3.03575	709.944
197.2000	3.33069	710.04
197.0000	3.67191	710.108
196.8000	3.66849	710.15
196.6000	3.70076	710.175
196.4000	3.76989	710.192
196.2000	4.04072	710.204
196.0000	4.29282	710.211
195.8000	4.49667	710.213
195.6000	3.66899	710.202
195.4000	3.7894	710.191
195.2000	4.3508	710.179
195.0000	4.27091	710.167

##### Extended Information
[Comments]
Sample name	Mota_1kx8_d06_melting
Comment	test
User
Division
Company	EPFL

[Detailed Information]
Creation date	12.07.2017 10:26

Data array type	Linear data array * 2
Horizontal axis	Wavelength [nm]
Vertical axis(1)	CD [mdeg]
Vertical axis(2)	HT [V]
Start	250 nm
End	195 nm
Data interval	0.2 nm
Data points	276     

[Measurement Information]
Instrument Name	CD-Spectrometer
Model Name	J-815
Serial No.	A007961168

Accessory	PFD-425S
Accessory S/N	A001061180
  Temperature	25.00 C
  Control Sonsor	Holder
  Monitor Sensor	Holder
  Cell Length	10 mm

Photometric Mode	CD, HT
Measure Range	250 - 195 nm
Data pitch	0.2 nm
Sensitivity	Standard
D.I.T.	8 sec
Bandwidth	1.00 nm
Start Mode	Immediately
Scanning Speed	50 nm/min
Baseline Correction	None
Shutter Control	Auto
PMT Voltage	Auto
Accumulations	2
Solvent	phosphate
Concentration	20 umol/L
End Temperature.	25 C
Start Temperature.	90 C
Temperature. Interval	5 C
Ramp Rate	5 C/min

