TITLE	Mota_1kx8_d06_melting
DATA TYPE	
ORIGIN	JASCO
OWNER	
DATE	17/07/12
TIME	10:26:23
SPECTROMETER/DATA SYSTEM	
LOCALE	2055
RESOLUTION	
DELTAX	-0.2
XUNITS	NANOMETERS
YUNITS	CD [mdeg]
Y2UNITS	HT [V]
FIRSTX	  250.0000
LASTX	  195.0000
NPOINTS	     276
FIRSTY	    -0.00678
MAXY	     0.30310
MINY	   -21.81587
XYDATA
250.0000	-0.00677795	306.849
249.8000	-0.0546663	307.123
249.6000	-0.0839123	307.395
249.4000	-0.0965569	307.669
249.2000	-0.100781	307.942
249.0000	-0.112118	308.217
248.8000	-0.122854	308.491
248.6000	-0.118843	308.767
248.4000	-0.128673	309.045
248.2000	-0.144175	309.321
248.0000	-0.167187	309.6
247.8000	-0.218948	309.88
247.6000	-0.245317	310.162
247.4000	-0.263219	310.446
247.2000	-0.310456	310.732
247.0000	-0.344952	311.018
246.8000	-0.37429	311.303
246.6000	-0.374799	311.592
246.4000	-0.3903	311.884
246.2000	-0.415961	312.176
246.0000	-0.439562	312.471
245.8000	-0.464321	312.766
245.6000	-0.483212	313.061
245.4000	-0.50689	313.363
245.2000	-0.560907	313.664
245.0000	-0.623872	313.97
244.8000	-0.702798	314.276
244.6000	-0.774278	314.582
244.4000	-0.826206	314.895
244.2000	-0.883241	315.21
244.0000	-0.91703	315.528
243.8000	-0.971976	315.853
243.6000	-1.02314	316.182
243.4000	-1.07191	316.516
243.2000	-1.12752	316.852
243.0000	-1.19005	317.193
242.8000	-1.25317	317.536
242.6000	-1.32507	317.885
242.4000	-1.41394	318.239
242.2000	-1.48492	318.598
242.0000	-1.55843	318.96
241.8000	-1.61815	319.328
241.6000	-1.692	319.702
241.4000	-1.78513	320.079
241.2000	-1.84165	320.464
241.0000	-1.9221	320.856
240.8000	-2.02088	321.253
240.6000	-2.08638	321.657
240.4000	-2.16888	322.068
240.2000	-2.24398	322.484
240.0000	-2.34839	322.91
239.8000	-2.44195	323.339
239.6000	-2.53765	323.781
239.4000	-2.62296	324.224
239.2000	-2.71548	324.681
239.0000	-2.81411	325.147
238.8000	-2.92177	325.621
238.6000	-3.02787	326.107
238.4000	-3.15048	326.596
238.2000	-3.24087	327.098
238.0000	-3.33033	327.608
237.8000	-3.43383	328.13
237.6000	-3.56969	328.663
237.4000	-3.70465	329.208
237.2000	-3.8386	329.765
237.0000	-3.94666	330.331
236.8000	-4.05911	330.911
236.6000	-4.18524	331.502
236.4000	-4.31385	332.11
236.2000	-4.46412	332.725
236.0000	-4.64379	333.358
235.8000	-4.78311	334.003
235.6000	-4.91598	334.663
235.4000	-5.04408	335.34
235.2000	-5.18657	336.027
235.0000	-5.34507	336.73
234.8000	-5.47167	337.451
234.6000	-5.61243	338.187
234.4000	-5.75973	338.94
234.2000	-5.89588	339.708
234.0000	-6.04415	340.492
233.8000	-6.20099	341.294
233.6000	-6.37347	342.114
233.4000	-6.58779	342.946
233.2000	-6.77555	343.799
233.0000	-6.9413	344.66
232.8000	-7.16376	345.539
232.6000	-7.40399	346.434
232.4000	-7.61667	347.34
232.2000	-7.7737	348.268
232.0000	-7.97271	349.209
231.8000	-8.1566	350.168
231.6000	-8.33634	351.141
231.4000	-8.5229	352.132
231.2000	-8.73733	353.129
231.0000	-8.93501	354.145
230.8000	-9.12926	355.171
230.6000	-9.34717	356.206
230.4000	-9.5698	357.256
230.2000	-9.80281	358.307
230.0000	-10.0367	359.365
229.8000	-10.253	360.433
229.6000	-10.4418	361.507
229.4000	-10.5946	362.587
229.2000	-10.743	363.669
229.0000	-10.9104	364.756
228.8000	-11.1317	365.842
228.6000	-11.3651	366.932
228.4000	-11.559	368.023
228.2000	-11.7567	369.112
228.0000	-11.9324	370.203
227.8000	-12.0888	371.284
227.6000	-12.2928	372.364
227.4000	-12.4366	373.44
227.2000	-12.6037	374.511
227.0000	-12.7773	375.58
226.8000	-12.9495	376.639
226.6000	-13.1616	377.694
226.4000	-13.3497	378.745
226.2000	-13.4766	379.784
226.0000	-13.609	380.819
225.8000	-13.7392	381.846
225.6000	-13.9263	382.864
225.4000	-14.1534	383.875
225.2000	-14.3477	384.871
225.0000	-14.4853	385.857
224.8000	-14.5919	386.832
224.6000	-14.7121	387.796
224.4000	-14.8078	388.751
224.2000	-14.8864	389.694
224.0000	-14.979	390.629
223.8000	-15.0866	391.553
223.6000	-15.1852	392.472
223.4000	-15.3032	393.383
223.2000	-15.3912	394.283
223.0000	-15.4687	395.178
222.8000	-15.5547	396.064
222.6000	-15.6666	396.94
222.4000	-15.7696	397.807
222.2000	-15.8669	398.664
222.0000	-15.8846	399.515
221.8000	-15.9522	400.358
221.6000	-15.9882	401.195
221.4000	-16.1036	402.024
221.2000	-16.1519	402.852
221.0000	-16.1654	403.672
220.8000	-16.2009	404.488
220.6000	-16.2417	405.299
220.4000	-16.3013	406.104
220.2000	-16.2995	406.906
220.0000	-16.2723	407.703
219.8000	-16.28	408.498
219.6000	-16.3446	409.292
219.4000	-16.3803	410.085
219.2000	-16.4387	410.877
219.0000	-16.3903	411.665
218.8000	-16.3275	412.447
218.6000	-16.2874	413.234
218.4000	-16.27	414.018
218.2000	-16.2698	414.808
218.0000	-16.2577	415.597
217.8000	-16.258	416.39
217.6000	-16.2538	417.186
217.4000	-16.3064	417.982
217.2000	-16.3573	418.786
217.0000	-16.4202	419.59
216.8000	-16.388	420.407
216.6000	-16.4218	421.23
216.4000	-16.4402	422.056
216.2000	-16.5209	422.891
216.0000	-16.6275	423.737
215.8000	-16.7157	424.592
215.6000	-16.8084	425.462
215.4000	-16.8937	426.35
215.2000	-16.9898	427.253
215.0000	-17.0711	428.173
214.8000	-17.0533	429.107
214.6000	-17.1422	430.058
214.4000	-17.3095	431.029
214.2000	-17.4254	432.022
214.0000	-17.5985	433.032
213.8000	-17.7394	434.069
213.6000	-17.9452	435.131
213.4000	-18.115	436.219
213.2000	-18.2931	437.333
213.0000	-18.343	438.479
212.8000	-18.4219	439.654
212.6000	-18.565	440.861
212.4000	-18.6952	442.102
212.2000	-18.9522	443.376
212.0000	-19.0576	444.693
211.8000	-19.1866	446.045
211.6000	-19.4429	447.44
211.4000	-19.606	448.877
211.2000	-19.7378	450.358
211.0000	-19.8534	451.889
210.8000	-20.058	453.465
210.6000	-20.1569	455.093
210.4000	-20.2593	456.774
210.2000	-20.4311	458.505
210.0000	-20.617	460.287
209.8000	-20.8116	462.13
209.6000	-21.0772	464.037
209.4000	-21.1475	466.009
209.2000	-21.1968	468.052
209.0000	-21.2732	470.162
208.8000	-21.3427	472.345
208.6000	-21.4865	474.598
208.4000	-21.5697	476.93
208.2000	-21.6656	479.346
208.0000	-21.6745	481.847
207.8000	-21.6969	484.445
207.6000	-21.7791	487.139
207.4000	-21.7767	489.93
207.2000	-21.8032	492.826
207.0000	-21.8159	495.825
206.8000	-21.7501	498.941
206.6000	-21.6685	502.176
206.4000	-21.5508	505.527
206.2000	-21.486	509.007
206.0000	-21.4775	512.62
205.8000	-21.2839	516.375
205.6000	-20.9819	520.273
205.4000	-20.9064	524.321
205.2000	-20.9973	528.527
205.0000	-20.9376	532.893
204.8000	-20.7295	537.428
204.6000	-20.4672	542.131
204.4000	-20.2251	546.996
204.2000	-20.063	552.024
204.0000	-19.6264	557.206
203.8000	-19.0034	562.543
203.6000	-18.0565	568.024
203.4000	-17.3838	573.632
203.2000	-16.8426	579.352
203.0000	-16.0877	585.16
202.8000	-14.865	591.039
202.6000	-14.0664	596.954
202.4000	-13.5976	602.886
202.2000	-13.0747	608.81
202.0000	-12.1057	614.709
201.8000	-10.8136	620.558
201.6000	-10.1155	626.334
201.4000	-9.8132	632.019
201.2000	-9.31234	637.601
201.0000	-8.21486	643.067
200.8000	-6.91592	648.405
200.6000	-6.02281	653.604
200.4000	-5.1625	658.661
200.2000	-4.623	663.559
200.0000	-4.36047	668.289
199.8000	-3.62837	672.854
199.6000	-2.87145	677.24
199.4000	-2.72152	681.434
199.2000	-2.41844	685.439
199.0000	-2.14896	689.24
198.8000	-1.75546	692.828
198.6000	-0.80632	696.208
198.4000	-0.592649	699.354
198.2000	-0.117012	702.269
198.0000	-0.373524	704.941
197.8000	-0.336288	707.377
197.6000	-0.354012	709.572
197.4000	-0.13982	711.537
197.2000	-0.075301	713.265
197.0000	-0.587194	714.765
196.8000	-0.297371	716.05
196.6000	0.170424	717.129
196.4000	0.303098	718.019
196.2000	0.168541	718.738
196.0000	0.161672	719.31
195.8000	-0.0798435	719.755
195.6000	-0.0182331	720.093
195.4000	-0.166169	720.344
195.2000	-0.637373	720.523
195.0000	-0.778089	720.644

##### Extended Information
[Comments]
Sample name	Mota_1kx8_d06_melting
Comment	test
User
Division
Company	EPFL

[Detailed Information]
Creation date	12.07.2017 10:26

Data array type	Linear data array * 2
Horizontal axis	Wavelength [nm]
Vertical axis(1)	CD [mdeg]
Vertical axis(2)	HT [V]
Start	250 nm
End	195 nm
Data interval	0.2 nm
Data points	276     

[Measurement Information]
Instrument Name	CD-Spectrometer
Model Name	J-815
Serial No.	A007961168

Accessory	PFD-425S
Accessory S/N	A001061180
  Temperature	25.00 C
  Control Sonsor	Holder
  Monitor Sensor	Holder
  Cell Length	10 mm

Photometric Mode	CD, HT
Measure Range	250 - 195 nm
Data pitch	0.2 nm
Sensitivity	Standard
D.I.T.	8 sec
Bandwidth	1.00 nm
Start Mode	Immediately
Scanning Speed	50 nm/min
Baseline Correction	None
Shutter Control	Auto
PMT Voltage	Auto
Accumulations	2
Solvent	phosphate
Concentration	20 umol/L
End Temperature.	25 C
Start Temperature.	90 C
Temperature. Interval	5 C
Ramp Rate	5 C/min

