TITLE	1kx8_007
DATA TYPE	
ORIGIN	JASCO
OWNER	
DATE	17/05/03
TIME	15:35:25
SPECTROMETER/DATA SYSTEM	
LOCALE	2055
RESOLUTION	
DELTAX	-0.2
XUNITS	NANOMETERS
YUNITS	CD [mdeg]
Y2UNITS	HT [V]
FIRSTX	  250.0000
LASTX	  190.0000
NPOINTS	     301
FIRSTY	    -0.29579
MAXY	    14.29470
MINY	   -19.78415
XYDATA
250.0000	-0.295789	303.595
249.8000	-0.299567	303.876
249.6000	-0.301916	304.158
249.4000	-0.307698	304.439
249.2000	-0.333931	304.722
249.0000	-0.332118	305.006
248.8000	-0.324698	305.286
248.6000	-0.324742	305.571
248.4000	-0.319559	305.857
248.2000	-0.310726	306.143
248.0000	-0.333678	306.431
247.8000	-0.340248	306.719
247.6000	-0.339977	307.008
247.4000	-0.378575	307.299
247.2000	-0.391884	307.589
247.0000	-0.414166	307.876
246.8000	-0.440248	308.169
246.6000	-0.487962	308.457
246.4000	-0.52542	308.751
246.2000	-0.532405	309.046
246.0000	-0.550671	309.343
245.8000	-0.574658	309.638
245.6000	-0.616603	309.932
245.4000	-0.655432	310.229
245.2000	-0.699636	310.532
245.0000	-0.739315	310.835
244.8000	-0.788523	311.14
244.6000	-0.81977	311.447
244.4000	-0.847887	311.754
244.2000	-0.892695	312.067
244.0000	-0.954099	312.379
243.8000	-1.0177	312.695
243.6000	-1.05677	313.014
243.4000	-1.10627	313.337
243.2000	-1.13846	313.664
243.0000	-1.19102	313.994
242.8000	-1.27235	314.33
242.6000	-1.33118	314.664
242.4000	-1.38943	315.005
242.2000	-1.45916	315.346
242.0000	-1.52695	315.693
241.8000	-1.57781	316.042
241.6000	-1.67311	316.395
241.4000	-1.76261	316.751
241.2000	-1.85718	317.111
241.0000	-1.95459	317.476
240.8000	-2.03012	317.847
240.6000	-2.1029	318.219
240.4000	-2.17961	318.599
240.2000	-2.25512	318.982
240.0000	-2.3307	319.368
239.8000	-2.39164	319.76
239.6000	-2.47811	320.155
239.4000	-2.58425	320.555
239.2000	-2.70749	320.961
239.0000	-2.83452	321.372
238.8000	-2.94497	321.79
238.6000	-3.07134	322.214
238.4000	-3.18295	322.642
238.2000	-3.29453	323.076
238.0000	-3.41341	323.519
237.8000	-3.50881	323.968
237.6000	-3.6328	324.421
237.4000	-3.77844	324.882
237.2000	-3.89688	325.35
237.0000	-4.05688	325.82
236.8000	-4.20762	326.304
236.6000	-4.37048	326.79
236.4000	-4.53431	327.282
236.2000	-4.67101	327.781
236.0000	-4.82752	328.288
235.8000	-4.98165	328.801
235.6000	-5.12919	329.321
235.4000	-5.30473	329.849
235.2000	-5.4783	330.383
235.0000	-5.65703	330.925
234.8000	-5.8229	331.476
234.6000	-5.97995	332.038
234.4000	-6.16559	332.605
234.2000	-6.39608	333.179
234.0000	-6.59217	333.763
233.8000	-6.80719	334.353
233.6000	-7.02208	334.954
233.4000	-7.21054	335.563
233.2000	-7.43154	336.175
233.0000	-7.65645	336.796
232.8000	-7.86142	337.419
232.6000	-8.05484	338.05
232.4000	-8.24275	338.69
232.2000	-8.42779	339.338
232.0000	-8.61175	339.993
231.8000	-8.84052	340.661
231.6000	-9.05181	341.333
231.4000	-9.22813	342.014
231.2000	-9.43715	342.698
231.0000	-9.68088	343.389
230.8000	-9.85549	344.088
230.6000	-10.0328	344.789
230.4000	-10.2204	345.495
230.2000	-10.3886	346.204
230.0000	-10.5503	346.916
229.8000	-10.6923	347.633
229.6000	-10.885	348.351
229.4000	-11.0722	349.07
229.2000	-11.2683	349.793
229.0000	-11.4689	350.515
228.8000	-11.6867	351.243
228.6000	-11.8837	351.969
228.4000	-12.0462	352.697
228.2000	-12.2405	353.427
228.0000	-12.4185	354.155
227.8000	-12.5748	354.886
227.6000	-12.6875	355.613
227.4000	-12.8191	356.339
227.2000	-12.9617	357.067
227.0000	-13.0561	357.789
226.8000	-13.1905	358.517
226.6000	-13.3237	359.241
226.4000	-13.4446	359.966
226.2000	-13.5382	360.696
226.0000	-13.653	361.426
225.8000	-13.7652	362.156
225.6000	-13.8672	362.884
225.4000	-13.9426	363.611
225.2000	-14.0147	364.329
225.0000	-14.0728	365.05
224.8000	-14.1551	365.766
224.6000	-14.2651	366.478
224.4000	-14.3371	367.192
224.2000	-14.3869	367.905
224.0000	-14.4639	368.618
223.8000	-14.5417	369.333
223.6000	-14.6351	370.049
223.4000	-14.7033	370.765
223.2000	-14.806	371.477
223.0000	-14.844	372.194
222.8000	-14.8353	372.911
222.6000	-14.8109	373.63
222.4000	-14.8711	374.35
222.2000	-14.8777	375.066
222.0000	-14.8582	375.791
221.8000	-14.8498	376.512
221.6000	-14.8279	377.238
221.4000	-14.7835	377.964
221.2000	-14.7423	378.69
221.0000	-14.732	379.419
220.8000	-14.7224	380.149
220.6000	-14.7096	380.883
220.4000	-14.7402	381.619
220.2000	-14.792	382.356
220.0000	-14.8231	383.097
219.8000	-14.774	383.838
219.6000	-14.7437	384.584
219.4000	-14.7444	385.336
219.2000	-14.7438	386.087
219.0000	-14.7379	386.844
218.8000	-14.7128	387.601
218.6000	-14.6843	388.366
218.4000	-14.7029	389.133
218.2000	-14.7453	389.904
218.0000	-14.7531	390.682
217.8000	-14.7736	391.466
217.6000	-14.7971	392.258
217.4000	-14.8545	393.055
217.2000	-14.907	393.855
217.0000	-14.8862	394.663
216.8000	-14.9102	395.475
216.6000	-14.9105	396.299
216.4000	-14.9362	397.129
216.2000	-14.9528	397.966
216.0000	-15.0156	398.818
215.8000	-14.9918	399.678
215.6000	-15.0091	400.55
215.4000	-15.036	401.43
215.2000	-15.1393	402.323
215.0000	-15.2414	403.229
214.8000	-15.2764	404.149
214.6000	-15.348	405.082
214.4000	-15.4106	406.032
214.2000	-15.4812	406.996
214.0000	-15.5872	407.976
213.8000	-15.6974	408.97
213.6000	-15.7406	409.982
213.4000	-15.8283	411.014
213.2000	-15.9459	412.062
213.0000	-16.0569	413.13
212.8000	-16.1719	414.217
212.6000	-16.26	415.323
212.4000	-16.2939	416.451
212.2000	-16.4661	417.599
212.0000	-16.6216	418.767
211.8000	-16.8224	419.956
211.6000	-16.9409	421.169
211.4000	-17.0626	422.406
211.2000	-17.2144	423.666
211.0000	-17.4021	424.948
210.8000	-17.5675	426.255
210.6000	-17.7024	427.588
210.4000	-17.8874	428.945
210.2000	-18.0735	430.33
210.0000	-18.2167	431.736
209.8000	-18.3023	433.173
209.6000	-18.4111	434.632
209.4000	-18.4583	436.119
209.2000	-18.5953	437.628
209.0000	-18.7394	439.165
208.8000	-18.8658	440.726
208.6000	-18.9475	442.314
208.4000	-19.064	443.929
208.2000	-19.1488	445.567
208.0000	-19.3647	447.23
207.8000	-19.5498	448.921
207.6000	-19.7108	450.637
207.4000	-19.7769	452.379
207.2000	-19.7737	454.152
207.0000	-19.719	455.948
206.8000	-19.7313	457.773
206.6000	-19.7804	459.622
206.4000	-19.7842	461.499
206.2000	-19.7348	463.401
206.0000	-19.5221	465.334
205.8000	-19.3829	467.295
205.6000	-19.2247	469.277
205.4000	-19.0857	471.29
205.2000	-18.8982	473.329
205.0000	-18.5891	475.398
204.8000	-18.2646	477.495
204.6000	-17.9207	479.62
204.4000	-17.5284	481.772
204.2000	-17.2551	483.945
204.0000	-16.9651	486.152
203.8000	-16.6687	488.386
203.6000	-16.2909	490.651
203.4000	-15.9489	492.941
203.2000	-15.4397	495.255
203.0000	-14.9287	497.6
202.8000	-14.3497	499.967
202.6000	-13.7006	502.359
202.4000	-13.0316	504.776
202.2000	-12.4912	507.218
202.0000	-11.8746	509.68
201.8000	-11.1553	512.166
201.6000	-10.493	514.671
201.4000	-9.82135	517.197
201.2000	-9.15187	519.741
201.0000	-8.35922	522.309
200.8000	-7.389	524.892
200.6000	-6.35927	527.489
200.4000	-5.57295	530.099
200.2000	-4.79122	532.721
200.0000	-3.65632	535.359
199.8000	-2.67106	538.004
199.6000	-2.03789	540.655
199.4000	-1.34139	543.308
199.2000	-0.475906	545.963
199.0000	0.358697	548.625
198.8000	1.14456	551.285
198.6000	2.22785	553.947
198.4000	3.09186	556.601
198.2000	3.77934	559.249
198.0000	4.52073	561.882
197.8000	5.36571	564.509
197.6000	6.1272	567.121
197.4000	6.72621	569.717
197.2000	7.25282	572.299
197.0000	7.99507	574.86
196.8000	8.95719	577.407
196.6000	9.67321	579.934
196.4000	10.105	582.441
196.2000	10.4835	584.925
196.0000	10.9476	587.39
195.8000	11.2977	589.834
195.6000	11.7965	592.254
195.4000	12.48	594.654
195.2000	13.0223	597.03
195.0000	13.2218	599.381
194.8000	13.6873	601.71
194.6000	13.9924	604.014
194.4000	14.1785	606.297
194.2000	14.261	608.551
194.0000	14.2425	610.785
193.8000	14.2947	612.996
193.6000	14.2387	615.182
193.4000	14.2355	617.339
193.2000	13.9837	619.469
193.0000	14.0765	621.577
192.8000	14.2437	623.661
192.6000	14.1407	625.724
192.4000	13.9005	627.762
192.2000	13.7846	629.779
192.0000	13.1296	631.771
191.8000	12.7282	633.741
191.6000	12.8445	635.691
191.4000	12.7749	637.62
191.2000	12.3552	639.523
191.0000	11.7524	641.403
190.8000	11.8323	643.261
190.6000	12.109	645.096
190.4000	12.2844	646.909
190.2000	11.4527	648.691
190.0000	10.932	650.452

##### Extended Information
[Comments]
Sample name	1kx8_007
Comment
User
Division
Company	EPFL

[Detailed Information]
Creation date	03.05.2017 15:35

Data array type	Linear data array * 2
Horizontal axis	Wavelength [nm]
Vertical axis(1)	CD [mdeg]
Vertical axis(2)	HT [V]
Start	250 nm
End	190 nm
Data interval	0.2 nm
Data points	301     

[Measurement Information]
Instrument Name	CD-Spectrometer
Model Name	J-815
Serial No.	A007961168

Accessory	PFD-425S
Accessory S/N	A001061180
  Temperature	20.01 C
  Control Sonsor	Holder
  Monitor Sensor	Holder
  Cell Length	10 mm

Photometric Mode	CD, HT
Measure Range	250 - 190 nm
Data pitch	0.2 nm
Sensitivity	Standard
D.I.T.	8 sec
Bandwidth	1.00 nm
Start Mode	Immediately
Scanning Speed	50 nm/min
Baseline Correction	None
Shutter Control	Auto
PMT Voltage	Auto
Accumulations	2
End Temperature.	20 C
Start Temperature.	90 C
Temperature. Interval	5 C
Ramp Rate	5 C/min

