TITLE	kx8_3_d1_Melt
DATA TYPE	
ORIGIN	JASCO
OWNER	
DATE	17/10/06
TIME	11:50:46
SPECTROMETER/DATA SYSTEM	
LOCALE	2055
RESOLUTION	
DELTAX	-0.2
XUNITS	NANOMETERS
YUNITS	CD [mdeg]
Y2UNITS	HT [V]
FIRSTX	  250.0000
LASTX	  195.0000
NPOINTS	     276
FIRSTY	    -0.05766
MAXY	    15.79928
MINY	   -28.79535
XYDATA
250.0000	-0.0576582	327.609
249.8000	-0.0462151	327.908
249.6000	-0.0542276	328.207
249.4000	-0.0876522	328.506
249.2000	-0.119657	328.806
249.0000	-0.141027	329.108
248.8000	-0.127608	329.408
248.6000	-0.142443	329.708
248.4000	-0.167689	330.01
248.2000	-0.166646	330.312
248.0000	-0.171208	330.615
247.8000	-0.205693	330.918
247.6000	-0.242837	331.221
247.4000	-0.260756	331.528
247.2000	-0.267895	331.833
247.0000	-0.302347	332.14
246.8000	-0.326515	332.447
246.6000	-0.362063	332.754
246.4000	-0.395745	333.063
246.2000	-0.447621	333.373
246.0000	-0.484526	333.687
245.8000	-0.502738	334.001
245.6000	-0.562887	334.316
245.4000	-0.574209	334.634
245.2000	-0.595942	334.956
245.0000	-0.625988	335.28
244.8000	-0.697502	335.606
244.6000	-0.749638	335.935
244.4000	-0.802511	336.265
244.2000	-0.871107	336.6
244.0000	-0.939619	336.938
243.8000	-1.05612	337.28
243.6000	-1.16028	337.627
243.4000	-1.2436	337.977
243.2000	-1.34983	338.333
243.0000	-1.41373	338.69
242.8000	-1.44519	339.055
242.6000	-1.49983	339.422
242.4000	-1.57406	339.794
242.2000	-1.67901	340.171
242.0000	-1.80113	340.554
241.8000	-1.91904	340.944
241.6000	-2.02845	341.339
241.4000	-2.17119	341.737
241.2000	-2.31373	342.143
241.0000	-2.43053	342.558
240.8000	-2.55806	342.976
240.6000	-2.71629	343.401
240.4000	-2.86338	343.834
240.2000	-3.01623	344.273
240.0000	-3.16336	344.721
239.8000	-3.32115	345.175
239.6000	-3.46684	345.638
239.4000	-3.62492	346.107
239.2000	-3.84154	346.582
239.0000	-4.05036	347.068
238.8000	-4.24122	347.563
238.6000	-4.46464	348.067
238.4000	-4.68873	348.577
238.2000	-4.87428	349.098
238.0000	-5.0527	349.628
237.8000	-5.26465	350.169
237.6000	-5.49447	350.718
237.4000	-5.70497	351.278
237.2000	-5.92606	351.848
237.0000	-6.10968	352.428
236.8000	-6.35147	353.017
236.6000	-6.56628	353.617
236.4000	-6.79329	354.227
236.2000	-7.05364	354.846
236.0000	-7.35614	355.475
235.8000	-7.65097	356.116
235.6000	-7.95607	356.764
235.4000	-8.27133	357.424
235.2000	-8.5498	358.093
235.0000	-8.84506	358.769
234.8000	-9.143	359.457
234.6000	-9.42303	360.156
234.4000	-9.71697	360.864
234.2000	-10.0194	361.583
234.0000	-10.3224	362.312
233.8000	-10.6653	363.05
233.6000	-11.0377	363.798
233.4000	-11.3774	364.555
233.2000	-11.7234	365.32
233.0000	-12.0722	366.093
232.8000	-12.4416	366.87
232.6000	-12.7867	367.657
232.4000	-13.106	368.452
232.2000	-13.4557	369.256
232.0000	-13.7788	370.067
231.8000	-14.1422	370.885
231.6000	-14.5007	371.712
231.4000	-14.9194	372.547
231.2000	-15.3553	373.387
231.0000	-15.7503	374.231
230.8000	-16.1353	375.083
230.6000	-16.4939	375.938
230.4000	-16.9129	376.797
230.2000	-17.3209	377.658
230.0000	-17.7163	378.525
229.8000	-18.0963	379.391
229.6000	-18.5495	380.261
229.4000	-18.9352	381.134
229.2000	-19.2851	382.008
229.0000	-19.6182	382.888
228.8000	-19.9598	383.768
228.6000	-20.2872	384.649
228.4000	-20.6231	385.534
228.2000	-20.903	386.419
228.0000	-21.2215	387.307
227.8000	-21.5698	388.193
227.6000	-21.9769	389.081
227.4000	-22.3075	389.97
227.2000	-22.6792	390.862
227.0000	-23.024	391.752
226.8000	-23.3318	392.645
226.6000	-23.6053	393.54
226.4000	-23.8872	394.435
226.2000	-24.1572	395.336
226.0000	-24.3878	396.24
225.8000	-24.6536	397.144
225.6000	-24.8885	398.052
225.4000	-25.1591	398.959
225.2000	-25.3711	399.868
225.0000	-25.5691	400.779
224.8000	-25.7232	401.692
224.6000	-25.9214	402.606
224.4000	-26.119	403.525
224.2000	-26.2649	404.445
224.0000	-26.4407	405.371
223.8000	-26.5522	406.301
223.6000	-26.6027	407.238
223.4000	-26.6385	408.179
223.2000	-26.7663	409.127
223.0000	-26.837	410.079
222.8000	-26.9033	411.037
222.6000	-26.9698	412.001
222.4000	-27.038	412.965
222.2000	-27.0816	413.938
222.0000	-27.217	414.914
221.8000	-27.3611	415.895
221.6000	-27.4743	416.883
221.4000	-27.5258	417.877
221.2000	-27.5642	418.873
221.0000	-27.5625	419.876
220.8000	-27.54	420.885
220.6000	-27.4774	421.898
220.4000	-27.3908	422.917
220.2000	-27.3785	423.943
220.0000	-27.3221	424.973
219.8000	-27.361	426.01
219.6000	-27.3673	427.054
219.4000	-27.4161	428.103
219.2000	-27.4664	429.161
219.0000	-27.4973	430.223
218.8000	-27.4553	431.295
218.6000	-27.4329	432.374
218.4000	-27.431	433.461
218.2000	-27.4406	434.553
218.0000	-27.389	435.657
217.8000	-27.3527	436.766
217.6000	-27.3408	437.887
217.4000	-27.3002	439.015
217.2000	-27.3207	440.152
217.0000	-27.329	441.3
216.8000	-27.3527	442.459
216.6000	-27.347	443.627
216.4000	-27.2534	444.809
216.2000	-27.0736	446.006
216.0000	-26.9666	447.213
215.8000	-26.943	448.437
215.6000	-26.9128	449.673
215.4000	-26.8208	450.925
215.2000	-26.7049	452.195
215.0000	-26.7062	453.481
214.8000	-26.7038	454.787
214.6000	-26.6984	456.113
214.4000	-26.6735	457.458
214.2000	-26.7211	458.824
214.0000	-26.8432	460.214
213.8000	-26.8714	461.623
213.6000	-26.9819	463.059
213.4000	-27.0562	464.516
213.2000	-27.1059	465.999
213.0000	-27.0842	467.509
212.8000	-27.0213	469.047
212.6000	-27.1085	470.607
212.4000	-27.0647	472.198
212.2000	-27.2155	473.818
212.0000	-27.2395	475.467
211.8000	-27.2411	477.15
211.6000	-27.2492	478.868
211.4000	-27.5214	480.615
211.2000	-27.6046	482.399
211.0000	-27.6479	484.219
210.8000	-27.7821	486.074
210.6000	-27.8688	487.97
210.4000	-28.0167	489.9
210.2000	-28.218	491.87
210.0000	-28.3162	493.878
209.8000	-28.3878	495.928
209.6000	-28.5371	498.016
209.4000	-28.6397	500.148
209.2000	-28.6373	502.322
209.0000	-28.7265	504.539
208.8000	-28.7418	506.806
208.6000	-28.7837	509.118
208.4000	-28.7954	511.485
208.2000	-28.7293	513.897
208.0000	-28.5505	516.363
207.8000	-28.427	518.882
207.6000	-28.2356	521.462
207.4000	-27.9097	524.099
207.2000	-27.6882	526.795
207.0000	-27.1227	529.558
206.8000	-26.8065	532.386
206.6000	-26.5783	535.283
206.4000	-26.1107	538.252
206.2000	-25.7318	541.298
206.0000	-25.2674	544.42
205.8000	-24.8276	547.627
205.6000	-24.2841	550.917
205.4000	-23.907	554.296
205.2000	-23.3292	557.773
205.0000	-22.9302	561.343
204.8000	-22.2958	565.022
204.6000	-21.1247	568.82
204.4000	-20.2946	572.731
204.2000	-19.7583	576.773
204.0000	-19.0237	580.944
203.8000	-17.9944	585.263
203.6000	-16.748	589.732
203.4000	-15.7568	594.365
203.2000	-14.3043	599.161
203.0000	-13.4092	604.13
202.8000	-12.4991	609.29
202.6000	-11.3208	614.638
202.4000	-9.6736	620.194
202.2000	-8.38898	625.959
202.0000	-7.19679	631.945
201.8000	-5.39691	638.157
201.6000	-3.62641	644.607
201.4000	-3.01744	651.294
201.2000	-1.23578	658.228
201.0000	1.17082	665.407
200.8000	3.68994	672.834
200.6000	5.15743	680.499
200.4000	8.68315	688.393
200.2000	10.7581	696.5
200.0000	11.6798	704.802
199.8000	11.366	713.277
199.6000	11.7669	721.9
199.4000	11.5803	730.631
199.2000	11.5103	739.426
199.0000	10.5265	748.261
198.8000	10.2328	757.089
198.6000	10.0844	765.882
198.4000	11.2722	774.6
198.2000	13.8517	783.221
198.0000	13.7964	791.72
197.8000	12.1742	800.065
197.6000	14.0955	808.26
197.4000	14.9615	816.286
197.2000	13.7507	824.104
197.0000	11.8005	831.711
196.8000	11.4023	839.107
196.6000	10.8155	846.277
196.4000	13.042	853.207
196.2000	14.0327	859.88
196.0000	15.7993	866.289
195.8000	14.6709	872.407
195.6000	14.1297	878.234
195.4000	13.8547	883.767
195.2000	12.6414	888.986
195.0000	11.7578	893.862

##### Extended Information
[Comments]
Sample name	kx8_3_d1_Melt
Comment
User
Division
Company	EPFL

[Detailed Information]
Creation date	06.10.2017 11:50

Data array type	Linear data array * 2
Horizontal axis	Wavelength [nm]
Vertical axis(1)	CD [mdeg]
Vertical axis(2)	HT [V]
Start	250 nm
End	195 nm
Data interval	0.2 nm
Data points	276     

[Measurement Information]
Instrument Name	CD-Spectrometer
Model Name	J-815
Serial No.	A007961168

Accessory	PFD-425S
Accessory S/N	A001061180
  Temperature	19.97 C
  Control Sonsor	Holder
  Monitor Sensor	Holder
  Cell Length	10 mm

Photometric Mode	CD, HT
Measure Range	250 - 195 nm
Data pitch	0.2 nm
Sensitivity	Standard
D.I.T.	8 sec
Bandwidth	1.00 nm
Start Mode	Immediately
Scanning Speed	50 nm/min
Baseline Correction	None
Shutter Control	Auto
PMT Voltage	Auto
Accumulations	2
End Temperature.	20 C
Start Temperature.	90 C
Temperature. Interval	2 C
Ramp Rate	2 C/min

