TITLE	kx8_3_d1_Melt
DATA TYPE	
ORIGIN	JASCO
OWNER	
DATE	17/10/06
TIME	11:50:46
SPECTROMETER/DATA SYSTEM	
LOCALE	2055
RESOLUTION	
DELTAX	-0.2
XUNITS	NANOMETERS
YUNITS	CD [mdeg]
Y2UNITS	HT [V]
FIRSTX	  250.0000
LASTX	  195.0000
NPOINTS	     276
FIRSTY	    -0.05075
MAXY	    11.80580
MINY	   -28.32756
XYDATA
250.0000	-0.0507475	327.862
249.8000	-0.0888971	328.161
249.6000	-0.112657	328.46
249.4000	-0.108064	328.758
249.2000	-0.108893	329.058
249.0000	-0.122733	329.358
248.8000	-0.144887	329.657
248.6000	-0.154327	329.958
248.4000	-0.128876	330.262
248.2000	-0.129746	330.566
248.0000	-0.193045	330.87
247.8000	-0.216333	331.174
247.6000	-0.24234	331.48
247.4000	-0.264609	331.787
247.2000	-0.25683	332.094
247.0000	-0.249976	332.4
246.8000	-0.246186	332.71
246.6000	-0.265994	333.019
246.4000	-0.299827	333.328
246.2000	-0.346087	333.641
246.0000	-0.409345	333.955
245.8000	-0.472909	334.27
245.6000	-0.514376	334.587
245.4000	-0.521056	334.906
245.2000	-0.598394	335.229
245.0000	-0.65225	335.552
244.8000	-0.733058	335.879
244.6000	-0.771409	336.209
244.4000	-0.790779	336.544
244.2000	-0.819003	336.88
244.0000	-0.868234	337.22
243.8000	-0.938014	337.561
243.6000	-1.00957	337.909
243.4000	-1.08572	338.261
243.2000	-1.1452	338.62
243.0000	-1.20653	338.979
242.8000	-1.31107	339.345
242.6000	-1.40084	339.716
242.4000	-1.50611	340.091
242.2000	-1.59498	340.47
242.0000	-1.68711	340.856
241.8000	-1.80912	341.244
241.6000	-1.88157	341.641
241.4000	-1.97774	342.041
241.2000	-2.09831	342.448
241.0000	-2.21917	342.863
240.8000	-2.34526	343.282
240.6000	-2.47639	343.71
240.4000	-2.60166	344.144
240.2000	-2.73448	344.584
240.0000	-2.86074	345.03
239.8000	-2.99517	345.486
239.6000	-3.10678	345.95
239.4000	-3.2311	346.419
239.2000	-3.36858	346.897
239.0000	-3.5307	347.384
238.8000	-3.75133	347.878
238.6000	-3.94628	348.38
238.4000	-4.1469	348.894
238.2000	-4.33472	349.415
238.0000	-4.5186	349.946
237.8000	-4.72101	350.487
237.6000	-4.93835	351.039
237.4000	-5.14683	351.599
237.2000	-5.37224	352.172
237.0000	-5.6396	352.752
236.8000	-5.88594	353.34
236.6000	-6.15668	353.938
236.4000	-6.43104	354.549
236.2000	-6.66261	355.165
236.0000	-6.92549	355.793
235.8000	-7.19507	356.428
235.6000	-7.46075	357.074
235.4000	-7.76295	357.73
235.2000	-8.03611	358.395
235.0000	-8.33072	359.069
234.8000	-8.63484	359.754
234.6000	-8.91873	360.45
234.4000	-9.24177	361.157
234.2000	-9.5451	361.872
234.0000	-9.82745	362.597
233.8000	-10.1353	363.332
233.6000	-10.4855	364.078
233.4000	-10.8282	364.833
233.2000	-11.1617	365.595
233.0000	-11.4954	366.364
232.8000	-11.8753	367.14
232.6000	-12.2502	367.925
232.4000	-12.6588	368.716
232.2000	-13.0014	369.518
232.0000	-13.3611	370.327
231.8000	-13.7162	371.142
231.6000	-14.0453	371.966
231.4000	-14.4143	372.796
231.2000	-14.8104	373.632
231.0000	-15.1638	374.472
230.8000	-15.5462	375.32
230.6000	-15.8786	376.169
230.4000	-16.2025	377.026
230.2000	-16.535	377.885
230.0000	-16.8502	378.75
229.8000	-17.1729	379.614
229.6000	-17.5383	380.486
229.4000	-17.9551	381.358
229.2000	-18.3146	382.235
229.0000	-18.6835	383.113
228.8000	-19.0252	383.994
228.6000	-19.4033	384.876
228.4000	-19.7658	385.76
228.2000	-20.0733	386.647
228.0000	-20.3787	387.536
227.8000	-20.6409	388.422
227.6000	-20.9677	389.31
227.4000	-21.2833	390.2
227.2000	-21.6216	391.092
227.0000	-21.9155	391.984
226.8000	-22.16	392.877
226.6000	-22.4165	393.771
226.4000	-22.6776	394.671
226.2000	-22.9936	395.569
226.0000	-23.2081	396.471
225.8000	-23.3627	397.375
225.6000	-23.55	398.281
225.4000	-23.7478	399.188
225.2000	-23.986	400.095
225.0000	-24.2449	401.003
224.8000	-24.4178	401.917
224.6000	-24.5878	402.831
224.4000	-24.764	403.752
224.2000	-24.8915	404.672
224.0000	-25.0387	405.599
223.8000	-25.1382	406.529
223.6000	-25.2491	407.465
223.4000	-25.3776	408.404
223.2000	-25.5081	409.349
223.0000	-25.6287	410.299
222.8000	-25.6918	411.254
222.6000	-25.7052	412.215
222.4000	-25.6922	413.178
222.2000	-25.7265	414.146
222.0000	-25.7688	415.119
221.8000	-25.764	416.099
221.6000	-25.7892	417.082
221.4000	-25.8407	418.07
221.2000	-25.9153	419.064
221.0000	-25.9454	420.064
220.8000	-25.9146	421.071
220.6000	-25.9361	422.081
220.4000	-25.8316	423.099
220.2000	-25.8036	424.122
220.0000	-25.8442	425.151
219.8000	-25.8296	426.184
219.6000	-25.784	427.225
219.4000	-25.6834	428.273
219.2000	-25.6972	429.326
219.0000	-25.7293	430.39
218.8000	-25.7079	431.458
218.6000	-25.6102	432.536
218.4000	-25.4528	433.623
218.2000	-25.4099	434.715
218.0000	-25.3967	435.817
217.8000	-25.3786	436.925
217.6000	-25.2791	438.043
217.4000	-25.1905	439.171
217.2000	-25.0964	440.305
217.0000	-25.0816	441.452
216.8000	-25.0634	442.611
216.6000	-25.0428	443.783
216.4000	-24.987	444.962
216.2000	-24.809	446.155
216.0000	-24.7423	447.363
215.8000	-24.7698	448.586
215.6000	-24.7555	449.824
215.4000	-24.7267	451.076
215.2000	-24.6915	452.349
215.0000	-24.76	453.638
214.8000	-24.8108	454.946
214.6000	-24.9311	456.274
214.4000	-25.0559	457.624
214.2000	-25.1672	458.995
214.0000	-25.2248	460.386
213.8000	-25.4391	461.8
213.6000	-25.6119	463.235
213.4000	-25.7368	464.697
213.2000	-25.8352	466.188
213.0000	-25.8491	467.708
212.8000	-25.8722	469.252
212.6000	-25.9435	470.826
212.4000	-26	472.427
212.2000	-26.0136	474.056
212.0000	-26.0929	475.719
211.8000	-26.2672	477.414
211.6000	-26.3857	479.143
211.4000	-26.5091	480.905
211.2000	-26.5151	482.702
211.0000	-26.7401	484.537
210.8000	-26.9991	486.41
210.6000	-27.2427	488.327
210.4000	-27.5847	490.278
210.2000	-27.765	492.268
210.0000	-27.9121	494.3
209.8000	-28.0775	496.377
209.6000	-28.2385	498.499
209.4000	-28.3276	500.661
209.2000	-28.2143	502.871
209.0000	-28.0956	505.127
208.8000	-28.0842	507.436
208.6000	-28.0025	509.794
208.4000	-28.0919	512.206
208.2000	-28.0487	514.672
208.0000	-27.9173	517.193
207.8000	-27.7	519.771
207.6000	-27.5298	522.412
207.4000	-27.422	525.119
207.2000	-27.1449	527.89
207.0000	-26.6521	530.739
206.8000	-26.1566	533.661
206.6000	-25.7107	536.659
206.4000	-25.4029	539.736
206.2000	-25.0958	542.9
206.0000	-25.0078	546.146
205.8000	-24.5752	549.493
205.6000	-23.9473	552.932
205.4000	-23.1968	556.479
205.2000	-22.4839	560.136
205.0000	-21.9534	563.904
204.8000	-21.1404	567.797
204.6000	-20.4721	571.825
204.4000	-20.2378	575.986
204.2000	-19.6218	580.3
204.0000	-18.6973	584.767
203.8000	-17.5457	589.404
203.6000	-16.4944	594.213
203.4000	-14.7246	599.215
203.2000	-13.3227	604.411
203.0000	-11.8564	609.807
202.8000	-10.9921	615.42
202.6000	-10.418	621.25
202.4000	-9.54433	627.311
202.2000	-8.22449	633.616
202.0000	-6.4693	640.17
201.8000	-5.34373	646.967
201.6000	-3.47916	654.026
201.4000	-1.90518	661.339
201.2000	-0.842647	668.891
201.0000	0.0573359	676.669
200.8000	0.569185	684.667
200.6000	2.22199	692.87
200.4000	3.53633	701.241
200.2000	4.71895	709.747
200.0000	4.85311	718.344
199.8000	5.85095	727.015
199.6000	7.33141	735.709
199.4000	6.8321	744.388
199.2000	6.5543	753.011
199.0000	8.19872	761.566
198.8000	8.30104	770.005
198.6000	7.4116	778.31
198.4000	7.67615	786.463
198.2000	9.67633	794.456
198.0000	11.3087	802.268
197.8000	10.466	809.86
197.6000	10.4252	817.239
197.4000	9.55988	824.383
197.2000	9.62168	831.292
197.0000	10.6148	837.949
196.8000	11.8058	844.337
196.6000	11.542	850.43
196.4000	10.3308	855.54
196.2000	8.80898	861.206
196.0000	8.17119	866.578
195.8000	9.23904	871.637
195.6000	11.6212	876.364
195.4000	10.9422	880.736
195.2000	9.69482	884.76
195.0000	8.24484	888.418

##### Extended Information
[Comments]
Sample name	kx8_3_d1_Melt
Comment
User
Division
Company	EPFL

[Detailed Information]
Creation date	06.10.2017 11:50

Data array type	Linear data array * 2
Horizontal axis	Wavelength [nm]
Vertical axis(1)	CD [mdeg]
Vertical axis(2)	HT [V]
Start	250 nm
End	195 nm
Data interval	0.2 nm
Data points	276     

[Measurement Information]
Instrument Name	CD-Spectrometer
Model Name	J-815
Serial No.	A007961168

Accessory	PFD-425S
Accessory S/N	A001061180
  Temperature	19.97 C
  Control Sonsor	Holder
  Monitor Sensor	Holder
  Cell Length	10 mm

Photometric Mode	CD, HT
Measure Range	250 - 195 nm
Data pitch	0.2 nm
Sensitivity	Standard
D.I.T.	8 sec
Bandwidth	1.00 nm
Start Mode	Immediately
Scanning Speed	50 nm/min
Baseline Correction	None
Shutter Control	Auto
PMT Voltage	Auto
Accumulations	2
End Temperature.	20 C
Start Temperature.	90 C
Temperature. Interval	2 C
Ramp Rate	2 C/min

