TITLE	kx8_3_d1_Melt
DATA TYPE	
ORIGIN	JASCO
OWNER	
DATE	17/10/06
TIME	11:50:46
SPECTROMETER/DATA SYSTEM	
LOCALE	2055
RESOLUTION	
DELTAX	-0.2
XUNITS	NANOMETERS
YUNITS	CD [mdeg]
Y2UNITS	HT [V]
FIRSTX	  250.0000
LASTX	  195.0000
NPOINTS	     276
FIRSTY	     0.06937
MAXY	     4.95827
MINY	   -25.04427
XYDATA
250.0000	0.0693684	327.806
249.8000	0.0767321	328.105
249.6000	0.0741507	328.404
249.4000	0.0749199	328.706
249.2000	0.0690733	329.008
249.0000	0.0592407	329.311
248.8000	0.0583008	329.613
248.6000	0.0420752	329.915
248.4000	0.0366749	330.22
248.2000	0.0335257	330.523
248.0000	0.0417963	330.829
247.8000	0.0201885	331.133
247.6000	-0.0266085	331.437
247.4000	-0.0372818	331.745
247.2000	-0.0855526	332.052
247.0000	-0.0831738	332.36
246.8000	-0.0911348	332.668
246.6000	-0.107669	332.976
246.4000	-0.150913	333.286
246.2000	-0.222665	333.598
246.0000	-0.268392	333.911
245.8000	-0.277317	334.227
245.6000	-0.319919	334.545
245.4000	-0.372417	334.864
245.2000	-0.431294	335.186
245.0000	-0.424119	335.512
244.8000	-0.462697	335.839
244.6000	-0.503851	336.171
244.4000	-0.549291	336.503
244.2000	-0.590365	336.841
244.0000	-0.628438	337.182
243.8000	-0.662943	337.527
243.6000	-0.743532	337.874
243.4000	-0.834574	338.226
243.2000	-0.899803	338.582
243.0000	-0.958046	338.942
242.8000	-1.0707	339.307
242.6000	-1.18632	339.675
242.4000	-1.30146	340.049
242.2000	-1.40323	340.427
242.0000	-1.50754	340.814
241.8000	-1.6087	341.204
241.6000	-1.70122	341.601
241.4000	-1.80037	342.002
241.2000	-1.9339	342.409
241.0000	-2.04501	342.824
240.8000	-2.19627	343.244
240.6000	-2.34476	343.668
240.4000	-2.51625	344.1
240.2000	-2.68745	344.54
240.0000	-2.83444	344.987
239.8000	-2.94912	345.443
239.6000	-3.07377	345.905
239.4000	-3.21383	346.375
239.2000	-3.38164	346.851
239.0000	-3.53145	347.336
238.8000	-3.69331	347.83
238.6000	-3.8687	348.333
238.4000	-4.06807	348.843
238.2000	-4.28775	349.363
238.0000	-4.49773	349.892
237.8000	-4.69373	350.43
237.6000	-4.88546	350.977
237.4000	-5.10391	351.534
237.2000	-5.35377	352.1
237.0000	-5.57539	352.675
236.8000	-5.77466	353.26
236.6000	-5.99526	353.856
236.4000	-6.25922	354.462
236.2000	-6.48347	355.077
236.0000	-6.67825	355.701
235.8000	-6.87418	356.335
235.6000	-7.088	356.978
235.4000	-7.32954	357.628
235.2000	-7.60773	358.288
235.0000	-7.887	358.957
234.8000	-8.1465	359.636
234.6000	-8.37977	360.325
234.4000	-8.65257	361.027
234.2000	-8.93722	361.736
234.0000	-9.17939	362.457
233.8000	-9.45079	363.185
233.6000	-9.73948	363.924
233.4000	-10.0314	364.672
233.2000	-10.3663	365.427
233.0000	-10.696	366.19
232.8000	-11.0116	366.957
232.6000	-11.2782	367.734
232.4000	-11.5955	368.518
232.2000	-11.8957	369.312
232.0000	-12.2708	370.114
231.8000	-12.5871	370.925
231.6000	-12.8655	371.745
231.4000	-13.1441	372.571
231.2000	-13.4306	373.401
231.0000	-13.7866	374.235
230.8000	-14.1062	375.076
230.6000	-14.4143	375.923
230.4000	-14.7234	376.773
230.2000	-15.0938	377.628
230.0000	-15.3944	378.486
229.8000	-15.6991	379.345
229.6000	-16.0221	380.21
229.4000	-16.3549	381.075
229.2000	-16.685	381.944
229.0000	-16.9584	382.817
228.8000	-17.2272	383.693
228.6000	-17.4871	384.57
228.4000	-17.7408	385.449
228.2000	-18.0061	386.332
228.0000	-18.2978	387.215
227.8000	-18.5905	388.099
227.6000	-18.8935	388.982
227.4000	-19.1271	389.867
227.2000	-19.385	390.752
227.0000	-19.5848	391.64
226.8000	-19.7578	392.528
226.6000	-19.9715	393.419
226.4000	-20.1797	394.313
226.2000	-20.3883	395.211
226.0000	-20.5776	396.109
225.8000	-20.7985	397.01
225.6000	-21.007	397.913
225.4000	-21.1156	398.814
225.2000	-21.2466	399.717
225.0000	-21.4338	400.618
224.8000	-21.592	401.523
224.6000	-21.7784	402.429
224.4000	-21.8722	403.344
224.2000	-21.9569	404.26
224.0000	-22.0732	405.181
223.8000	-22.1544	406.105
223.6000	-22.2015	407.033
223.4000	-22.3075	407.967
223.2000	-22.4384	408.906
223.0000	-22.5167	409.848
222.8000	-22.5653	410.796
222.6000	-22.5754	411.751
222.4000	-22.6326	412.706
222.2000	-22.7232	413.668
222.0000	-22.7097	414.635
221.8000	-22.7549	415.605
221.6000	-22.822	416.583
221.4000	-22.8585	417.564
221.2000	-22.8624	418.549
221.0000	-22.8664	419.541
220.8000	-22.9126	420.538
220.6000	-23.0108	421.539
220.4000	-23.0393	422.548
220.2000	-23.1152	423.56
220.0000	-23.1433	424.579
219.8000	-23.1515	425.604
219.6000	-23.1588	426.634
219.4000	-23.2146	427.672
219.2000	-23.1991	428.716
219.0000	-23.0486	429.77
218.8000	-23.0348	430.83
218.6000	-23.0159	431.898
218.4000	-23.0094	432.973
218.2000	-22.9988	434.057
218.0000	-22.9682	435.147
217.8000	-22.9707	436.248
217.6000	-22.9356	437.355
217.4000	-22.8945	438.47
217.2000	-22.8918	439.594
217.0000	-22.9363	440.732
216.8000	-22.9808	441.877
216.6000	-22.8929	443.035
216.4000	-22.8708	444.206
216.2000	-22.8617	445.391
216.0000	-22.8538	446.586
215.8000	-22.9541	447.799
215.6000	-22.9973	449.026
215.4000	-23.0542	450.268
215.2000	-23.0504	451.527
215.0000	-23.027	452.803
214.8000	-23.0972	454.099
214.6000	-23.2219	455.415
214.4000	-23.2753	456.752
214.2000	-23.2608	458.11
214.0000	-23.1745	459.492
213.8000	-23.1792	460.895
213.6000	-23.1552	462.322
213.4000	-23.2519	463.772
213.2000	-23.3146	465.249
213.0000	-23.3408	466.752
212.8000	-23.3254	468.283
212.6000	-23.3617	469.842
212.4000	-23.5278	471.425
212.2000	-23.7352	473.039
212.0000	-23.9139	474.686
211.8000	-23.9352	476.366
211.6000	-23.9029	478.081
211.4000	-23.9838	479.831
211.2000	-24.1731	481.616
211.0000	-24.4294	483.438
210.8000	-24.5248	485.298
210.6000	-24.6142	487.197
210.4000	-24.6237	489.136
210.2000	-24.6419	491.114
210.0000	-24.8909	493.133
209.8000	-24.9425	495.195
209.6000	-25.0086	497.304
209.4000	-25.0443	499.454
209.2000	-24.8611	501.654
209.0000	-24.861	503.899
208.8000	-24.8217	506.197
208.6000	-24.7317	508.547
208.4000	-24.6441	510.954
208.2000	-24.3261	513.409
208.0000	-24.1382	515.924
207.8000	-24.1979	518.496
207.6000	-23.9681	521.13
207.4000	-23.7985	523.825
207.2000	-23.594	526.59
207.0000	-23.3814	529.424
206.8000	-22.8707	532.334
206.6000	-22.1976	535.319
206.4000	-21.8674	538.375
206.2000	-21.6751	541.512
206.0000	-21.45	544.733
205.8000	-20.9707	548.042
205.6000	-20.5497	551.444
205.4000	-19.9929	554.934
205.2000	-19.4944	558.519
205.0000	-19.158	562.204
204.8000	-18.8055	565.991
204.6000	-18.1129	569.888
204.4000	-17.2221	573.891
204.2000	-16.3975	578.003
204.0000	-15.7522	582.222
203.8000	-15.182	586.554
203.6000	-14.3142	590.993
203.4000	-13.2079	595.54
203.2000	-11.8081	600.19
203.0000	-10.7207	604.932
202.8000	-10.1884	609.761
202.6000	-9.44739	614.659
202.4000	-8.84472	619.625
202.2000	-8.22297	624.641
202.0000	-7.47362	629.695
201.8000	-6.27619	634.77
201.6000	-5.31858	639.851
201.4000	-4.06996	644.92
201.2000	-2.70502	649.963
201.0000	-2.15047	654.955
200.8000	-1.69854	659.889
200.6000	-0.938922	664.743
200.4000	-0.364221	669.51
200.2000	0.272558	674.177
200.0000	-0.0730219	678.725
199.8000	-0.463584	683.161
199.6000	-0.12748	687.469
199.4000	0.236262	691.643
199.2000	0.419949	695.672
199.0000	1.0378	699.557
198.8000	1.16789	703.279
198.6000	1.43188	706.841
198.4000	1.86948	710.238
198.2000	2.18862	713.461
198.0000	3.3979	716.506
197.8000	3.73902	719.369
197.6000	3.98791	722.047
197.4000	4.44121	724.54
197.2000	4.6002	726.844
197.0000	4.88158	728.954
196.8000	4.48087	730.878
196.6000	3.8053	732.609
196.4000	3.17604	734.159
196.2000	3.25412	735.533
196.0000	3.61303	736.742
195.8000	4.09903	737.791
195.6000	4.95827	738.686
195.4000	4.39579	739.433
195.2000	3.58754	740.052
195.0000	2.83865	740.561

##### Extended Information
[Comments]
Sample name	kx8_3_d1_Melt
Comment
User
Division
Company	EPFL

[Detailed Information]
Creation date	06.10.2017 11:50

Data array type	Linear data array * 2
Horizontal axis	Wavelength [nm]
Vertical axis(1)	CD [mdeg]
Vertical axis(2)	HT [V]
Start	250 nm
End	195 nm
Data interval	0.2 nm
Data points	276     

[Measurement Information]
Instrument Name	CD-Spectrometer
Model Name	J-815
Serial No.	A007961168

Accessory	PFD-425S
Accessory S/N	A001061180
  Temperature	19.97 C
  Control Sonsor	Holder
  Monitor Sensor	Holder
  Cell Length	10 mm

Photometric Mode	CD, HT
Measure Range	250 - 195 nm
Data pitch	0.2 nm
Sensitivity	Standard
D.I.T.	8 sec
Bandwidth	1.00 nm
Start Mode	Immediately
Scanning Speed	50 nm/min
Baseline Correction	None
Shutter Control	Auto
PMT Voltage	Auto
Accumulations	2
End Temperature.	20 C
Start Temperature.	90 C
Temperature. Interval	2 C
Ramp Rate	2 C/min

