TITLE	kx8_3_d1_Melt
DATA TYPE	
ORIGIN	JASCO
OWNER	
DATE	17/10/06
TIME	11:50:46
SPECTROMETER/DATA SYSTEM	
LOCALE	2055
RESOLUTION	
DELTAX	-0.2
XUNITS	NANOMETERS
YUNITS	CD [mdeg]
Y2UNITS	HT [V]
FIRSTX	  250.0000
LASTX	  195.0000
NPOINTS	     276
FIRSTY	    -0.35831
MAXY	     4.40311
MINY	   -17.26204
XYDATA
250.0000	-0.358314	327.43
249.8000	-0.364185	327.734
249.6000	-0.374269	328.034
249.4000	-0.370087	328.339
249.2000	-0.386807	328.643
249.0000	-0.407289	328.947
248.8000	-0.418248	329.253
248.6000	-0.441545	329.558
248.4000	-0.455398	329.863
248.2000	-0.477944	330.17
248.0000	-0.484125	330.478
247.8000	-0.49713	330.784
247.6000	-0.466007	331.093
247.4000	-0.484758	331.401
247.2000	-0.491194	331.709
247.0000	-0.514802	332.02
246.8000	-0.523249	332.329
246.6000	-0.556988	332.64
246.4000	-0.579046	332.951
246.2000	-0.601014	333.263
246.0000	-0.659636	333.579
245.8000	-0.688866	333.897
245.6000	-0.710091	334.213
245.4000	-0.757787	334.535
245.2000	-0.800993	334.86
245.0000	-0.812816	335.183
244.8000	-0.839332	335.513
244.6000	-0.877241	335.844
244.4000	-0.918193	336.176
244.2000	-0.947473	336.516
244.0000	-0.990207	336.856
243.8000	-1.02379	337.198
243.6000	-0.997493	337.548
243.4000	-1.03915	337.9
243.2000	-1.08471	338.253
243.0000	-1.12623	338.615
242.8000	-1.16399	338.978
242.6000	-1.21416	339.345
242.4000	-1.28443	339.72
242.2000	-1.32356	340.096
242.0000	-1.38085	340.479
241.8000	-1.44626	340.867
241.6000	-1.5208	341.259
241.4000	-1.61214	341.658
241.2000	-1.6697	342.063
241.0000	-1.76574	342.472
240.8000	-1.87515	342.889
240.6000	-1.91262	343.314
240.4000	-1.94462	343.741
240.2000	-2.01439	344.177
240.0000	-2.12509	344.619
239.8000	-2.22802	345.067
239.6000	-2.32389	345.525
239.4000	-2.38781	345.988
239.2000	-2.43066	346.458
239.0000	-2.49318	346.937
238.8000	-2.58845	347.424
238.6000	-2.6903	347.917
238.4000	-2.77842	348.422
238.2000	-2.86622	348.932
238.0000	-2.98808	349.453
237.8000	-3.0754	349.984
237.6000	-3.19309	350.52
237.4000	-3.2862	351.066
237.2000	-3.39061	351.623
237.0000	-3.53501	352.187
236.8000	-3.66617	352.764
236.6000	-3.80258	353.349
236.4000	-3.9249	353.941
236.2000	-4.04477	354.543
236.0000	-4.18702	355.155
235.8000	-4.28366	355.774
235.6000	-4.39203	356.405
235.4000	-4.50966	357.043
235.2000	-4.60829	357.689
235.0000	-4.69946	358.347
234.8000	-4.75731	359.013
234.6000	-4.87875	359.686
234.4000	-4.99333	360.373
234.2000	-5.08851	361.068
234.0000	-5.23243	361.771
233.8000	-5.40152	362.485
233.6000	-5.56084	363.209
233.4000	-5.65349	363.942
233.2000	-5.74769	364.686
233.0000	-5.84906	365.434
232.8000	-5.96745	366.192
232.6000	-6.12538	366.96
232.4000	-6.26433	367.734
232.2000	-6.41908	368.518
232.0000	-6.5274	369.312
231.8000	-6.66503	370.112
231.6000	-6.80395	370.921
231.4000	-6.95263	371.74
231.2000	-7.09031	372.565
231.0000	-7.18241	373.399
230.8000	-7.30587	374.24
230.6000	-7.39993	375.084
230.4000	-7.56024	375.935
230.2000	-7.68753	376.792
230.0000	-7.80955	377.654
229.8000	-7.86991	378.522
229.6000	-8.02021	379.392
229.4000	-8.12805	380.265
229.2000	-8.21714	381.144
229.0000	-8.35202	382.026
228.8000	-8.45565	382.912
228.6000	-8.61674	383.806
228.4000	-8.74659	384.698
228.2000	-8.86771	385.595
228.0000	-8.98967	386.501
227.8000	-9.05097	387.405
227.6000	-9.13211	388.311
227.4000	-9.18871	389.221
227.2000	-9.30253	390.129
227.0000	-9.39169	391.043
226.8000	-9.53809	391.959
226.6000	-9.67828	392.875
226.4000	-9.86578	393.796
226.2000	-9.93973	394.719
226.0000	-10.003	395.641
225.8000	-10.1334	396.57
225.6000	-10.1972	397.499
225.4000	-10.233	398.429
225.2000	-10.3133	399.361
225.0000	-10.4085	400.295
224.8000	-10.5223	401.228
224.6000	-10.6045	402.166
224.4000	-10.706	403.105
224.2000	-10.7954	404.047
224.0000	-10.9086	404.996
223.8000	-10.9485	405.946
223.6000	-10.9573	406.901
223.4000	-10.9841	407.861
223.2000	-11.0812	408.823
223.0000	-11.1735	409.794
222.8000	-11.2349	410.771
222.6000	-11.3127	411.75
222.4000	-11.3569	412.734
222.2000	-11.4391	413.722
222.0000	-11.4784	414.715
221.8000	-11.5031	415.715
221.6000	-11.5461	416.72
221.4000	-11.594	417.728
221.2000	-11.7044	418.742
221.0000	-11.7809	419.759
220.8000	-11.7832	420.784
220.6000	-11.6953	421.816
220.4000	-11.7201	422.851
220.2000	-11.7257	423.892
220.0000	-11.79	424.942
219.8000	-11.7095	425.998
219.6000	-11.6869	427.06
219.4000	-11.8218	428.132
219.2000	-11.9	429.209
219.0000	-11.8466	430.295
218.8000	-11.9085	431.392
218.6000	-11.9117	432.497
218.4000	-11.8222	433.611
218.2000	-11.726	434.735
218.0000	-11.6778	435.869
217.8000	-11.648	437.013
217.6000	-11.686	438.17
217.4000	-11.7385	439.336
217.2000	-11.8187	440.514
217.0000	-11.8898	441.706
216.8000	-11.9393	442.909
216.6000	-11.948	444.132
216.4000	-11.8976	445.368
216.2000	-11.8252	446.619
216.0000	-11.8054	447.891
215.8000	-11.8967	449.18
215.6000	-12.0197	450.485
215.4000	-12.0736	451.814
215.2000	-12.0572	453.164
215.0000	-12.0618	454.535
214.8000	-12.0796	455.935
214.6000	-11.9713	457.36
214.4000	-11.9761	458.812
214.2000	-12.2635	460.296
214.0000	-12.457	461.806
213.8000	-12.6398	463.349
213.6000	-12.8509	464.927
213.4000	-12.939	466.54
213.2000	-13.1573	468.188
213.0000	-13.365	469.879
212.8000	-13.4557	471.609
212.6000	-13.3844	473.382
212.4000	-13.5678	475.198
212.2000	-13.6754	477.058
212.0000	-13.7587	478.967
211.8000	-14.0857	480.926
211.6000	-14.2664	482.936
211.4000	-14.5241	485.006
211.2000	-14.7843	487.135
211.0000	-14.8866	489.321
210.8000	-14.969	491.573
210.6000	-14.9631	493.893
210.4000	-14.902	496.279
210.2000	-15.1245	498.737
210.0000	-15.3296	501.27
209.8000	-15.6164	503.88
209.6000	-15.8111	506.574
209.4000	-15.9848	509.352
209.2000	-16.0031	512.217
209.0000	-15.9104	515.177
208.8000	-15.93	518.237
208.6000	-16.1811	521.392
208.4000	-16.3393	524.658
208.2000	-16.5415	528.03
208.0000	-16.903	531.512
207.8000	-17.1456	535.111
207.6000	-17.1798	538.832
207.4000	-17.2494	542.679
207.2000	-17.262	546.657
207.0000	-16.958	550.764
206.8000	-16.7659	555.005
206.6000	-16.5103	559.382
206.4000	-16.1003	563.888
206.2000	-16.1248	568.523
206.0000	-15.9564	573.291
205.8000	-15.581	578.186
205.6000	-15.9089	583.195
205.4000	-15.7016	588.313
205.2000	-15.621	593.527
205.0000	-15.4338	598.828
204.8000	-14.8507	604.2
204.6000	-13.8761	609.622
204.4000	-13.1911	615.08
204.2000	-12.6609	620.552
204.0000	-12.229	626.014
203.8000	-12.0929	631.454
203.6000	-11.6924	636.851
203.4000	-11.6293	642.183
203.2000	-11.3907	647.435
203.0000	-11.1549	652.588
202.8000	-10.3788	657.638
202.6000	-10.0668	662.571
202.4000	-10.2343	667.371
202.2000	-10.1042	672.034
202.0000	-9.46696	676.557
201.8000	-8.589	680.926
201.6000	-8.321	685.129
201.4000	-8.23514	689.164
201.2000	-7.99365	693.026
201.0000	-7.6842	696.708
200.8000	-7.36587	700.203
200.6000	-6.61543	703.51
200.4000	-6.00803	706.62
200.2000	-6.28261	709.526
200.0000	-5.83451	712.233
199.8000	-5.08213	714.732
199.6000	-4.32733	717.025
199.4000	-3.72902	719.107
199.2000	-3.48279	720.984
199.0000	-2.85389	722.664
198.8000	-2.20229	724.149
198.6000	-1.74155	725.446
198.4000	-1.22987	726.558
198.2000	-1.13988	727.497
198.0000	-1.17568	728.285
197.8000	-1.06216	728.932
197.6000	-1.13373	729.452
197.4000	-0.298272	729.871
197.2000	0.333455	730.194
197.0000	0.677842	730.437
196.8000	1.53173	730.618
196.6000	2.53293	730.751
196.4000	3.39844	730.849
196.2000	3.19605	730.913
196.0000	3.13877	730.953
195.8000	3.96871	730.984
195.6000	4.40311	730.999
195.4000	4.27514	731.003
195.2000	3.58671	730.996
195.0000	3.25833	730.99

##### Extended Information
[Comments]
Sample name	kx8_3_d1_Melt
Comment
User
Division
Company	EPFL

[Detailed Information]
Creation date	06.10.2017 11:50

Data array type	Linear data array * 2
Horizontal axis	Wavelength [nm]
Vertical axis(1)	CD [mdeg]
Vertical axis(2)	HT [V]
Start	250 nm
End	195 nm
Data interval	0.2 nm
Data points	276     

[Measurement Information]
Instrument Name	CD-Spectrometer
Model Name	J-815
Serial No.	A007961168

Accessory	PFD-425S
Accessory S/N	A001061180
  Temperature	19.97 C
  Control Sonsor	Holder
  Monitor Sensor	Holder
  Cell Length	10 mm

Photometric Mode	CD, HT
Measure Range	250 - 195 nm
Data pitch	0.2 nm
Sensitivity	Standard
D.I.T.	8 sec
Bandwidth	1.00 nm
Start Mode	Immediately
Scanning Speed	50 nm/min
Baseline Correction	None
Shutter Control	Auto
PMT Voltage	Auto
Accumulations	2
End Temperature.	20 C
Start Temperature.	90 C
Temperature. Interval	2 C
Ramp Rate	2 C/min

