TITLE	Mota_1kx8_d07_tcep
DATA TYPE	
ORIGIN	JASCO
OWNER	
DATE	17/08/08
TIME	17:09:08
SPECTROMETER/DATA SYSTEM	
LOCALE	2055
RESOLUTION	
DELTAX	-0.2
XUNITS	NANOMETERS
YUNITS	CD [mdeg]
Y2UNITS	HT [V]
FIRSTX	  250.0000
LASTX	  195.0000
NPOINTS	     276
FIRSTY	    -0.01423
MAXY	    -0.01125
MINY	   -24.41131
XYDATA
250.0000	-0.0142302	308.584
249.8000	-0.0112492	308.863
249.6000	-0.02132	309.145
249.4000	-0.0333811	309.428
249.2000	-0.057081	309.716
249.0000	-0.0740429	310.003
248.8000	-0.0758989	310.289
248.6000	-0.105465	310.578
248.4000	-0.141732	310.868
248.2000	-0.143158	311.159
248.0000	-0.157288	311.453
247.8000	-0.153729	311.747
247.6000	-0.152726	312.041
247.4000	-0.163743	312.339
247.2000	-0.188936	312.638
247.0000	-0.223429	312.936
246.8000	-0.259892	313.236
246.6000	-0.296292	313.536
246.4000	-0.339127	313.836
246.2000	-0.387457	314.142
246.0000	-0.432742	314.449
245.8000	-0.462257	314.761
245.6000	-0.485349	315.072
245.4000	-0.520642	315.389
245.2000	-0.590013	315.71
245.0000	-0.653533	316.032
244.8000	-0.680545	316.362
244.6000	-0.72283	316.689
244.4000	-0.794311	317.024
244.2000	-0.867294	317.361
244.0000	-0.947892	317.701
243.8000	-1.0102	318.047
243.6000	-1.10006	318.4
243.4000	-1.17565	318.756
243.2000	-1.25449	319.121
243.0000	-1.34163	319.489
242.8000	-1.43773	319.862
242.6000	-1.50885	320.241
242.4000	-1.60587	320.625
242.2000	-1.70902	321.016
242.0000	-1.79958	321.411
241.8000	-1.88917	321.816
241.6000	-2.02794	322.225
241.4000	-2.14722	322.645
241.2000	-2.28073	323.068
241.0000	-2.43022	323.502
240.8000	-2.5559	323.946
240.6000	-2.66924	324.393
240.4000	-2.80207	324.851
240.2000	-2.94331	325.32
240.0000	-3.06167	325.795
239.8000	-3.19913	326.283
239.6000	-3.33507	326.78
239.4000	-3.47259	327.284
239.2000	-3.65197	327.799
239.0000	-3.84337	328.327
238.8000	-4.03223	328.867
238.6000	-4.19737	329.418
238.4000	-4.3436	329.976
238.2000	-4.53223	330.552
238.0000	-4.74435	331.139
237.8000	-4.94906	331.739
237.6000	-5.14392	332.357
237.4000	-5.33705	332.985
237.2000	-5.54003	333.632
237.0000	-5.75479	334.29
236.8000	-5.99539	334.962
236.6000	-6.23472	335.651
236.4000	-6.44451	336.357
236.2000	-6.66022	337.076
236.0000	-6.89951	337.816
235.8000	-7.14823	338.573
235.6000	-7.35498	339.346
235.4000	-7.61094	340.138
235.2000	-7.87476	340.943
235.0000	-8.13677	341.771
234.8000	-8.3863	342.615
234.6000	-8.67796	343.482
234.4000	-8.99056	344.371
234.2000	-9.29294	345.278
234.0000	-9.58977	346.207
233.8000	-9.8816	347.154
233.6000	-10.1544	348.126
233.4000	-10.4397	349.117
233.2000	-10.7652	350.126
233.0000	-11.0757	351.155
232.8000	-11.3792	352.201
232.6000	-11.6649	353.267
232.4000	-12.0087	354.35
232.2000	-12.3374	355.458
232.0000	-12.658	356.586
231.8000	-12.9509	357.739
231.6000	-13.295	358.91
231.4000	-13.6297	360.105
231.2000	-13.9294	361.315
231.0000	-14.2023	362.543
230.8000	-14.5519	363.79
230.6000	-14.8417	365.052
230.4000	-15.1343	366.333
230.2000	-15.4135	367.632
230.0000	-15.699	368.944
229.8000	-16.0369	370.275
229.6000	-16.3325	371.619
229.4000	-16.6371	372.975
229.2000	-16.9526	374.345
229.0000	-17.2783	375.73
228.8000	-17.5758	377.132
228.6000	-17.8479	378.551
228.4000	-18.1361	379.981
228.2000	-18.4077	381.425
228.0000	-18.674	382.879
227.8000	-18.9062	384.34
227.6000	-19.1216	385.816
227.4000	-19.3818	387.3
227.2000	-19.6202	388.802
227.0000	-19.7991	390.314
226.8000	-20.0729	391.833
226.6000	-20.3144	393.369
226.4000	-20.5386	394.918
226.2000	-20.7543	396.486
226.0000	-20.9919	398.07
225.8000	-21.1099	399.664
225.6000	-21.2763	401.264
225.4000	-21.4586	402.879
225.2000	-21.6893	404.502
225.0000	-21.8496	406.139
224.8000	-21.9329	407.783
224.6000	-22.0289	409.442
224.4000	-22.1249	411.115
224.2000	-22.1687	412.798
224.0000	-22.2102	414.499
223.8000	-22.3295	416.212
223.6000	-22.485	417.942
223.4000	-22.6143	419.687
223.2000	-22.681	421.447
223.0000	-22.7687	423.228
222.8000	-22.7997	425.024
222.6000	-22.8339	426.842
222.4000	-22.8679	428.672
222.2000	-22.9068	430.518
222.0000	-22.9012	432.38
221.8000	-22.8493	434.259
221.6000	-22.8067	436.156
221.4000	-22.8308	438.072
221.2000	-22.909	440.005
221.0000	-23.016	441.951
220.8000	-23.0716	443.923
220.6000	-23.1797	445.905
220.4000	-23.3037	447.907
220.2000	-23.4012	449.929
220.0000	-23.3745	451.967
219.8000	-23.3761	454.017
219.6000	-23.381	456.084
219.4000	-23.306	458.168
219.2000	-23.3438	460.268
219.0000	-23.2753	462.391
218.8000	-23.1273	464.528
218.6000	-22.9981	466.683
218.4000	-22.9593	468.859
218.2000	-22.9763	471.048
218.0000	-23.1299	473.255
217.8000	-23.1611	475.48
217.6000	-23.1881	477.726
217.4000	-23.156	479.988
217.2000	-23.1413	482.264
217.0000	-23.1762	484.56
216.8000	-23.1966	486.872
216.6000	-23.1154	489.208
216.4000	-23.1665	491.556
216.2000	-23.0792	493.927
216.0000	-23.1008	496.307
215.8000	-23.1089	498.708
215.6000	-23.0584	501.124
215.4000	-23.1043	503.557
215.2000	-23.237	506.007
215.0000	-23.2795	508.477
214.8000	-23.4169	510.969
214.6000	-23.4838	513.477
214.4000	-23.5224	516.01
214.2000	-23.6163	518.558
214.0000	-23.5419	521.126
213.8000	-23.6342	523.711
213.6000	-23.5875	526.314
213.4000	-23.4865	528.944
213.2000	-23.4638	531.594
213.0000	-23.5591	534.266
212.8000	-23.6068	536.955
212.6000	-23.6362	539.666
212.4000	-23.7005	542.4
212.2000	-23.8645	545.149
212.0000	-24.1056	547.922
211.8000	-24.0668	550.707
211.6000	-24.0635	553.51
211.4000	-23.9888	556.332
211.2000	-23.9772	559.171
211.0000	-24.0657	562.028
210.8000	-24.1624	564.899
210.6000	-24.211	567.787
210.4000	-24.3499	570.692
210.2000	-24.3175	573.611
210.0000	-24.4113	576.536
209.8000	-24.3678	579.48
209.6000	-24.0189	582.431
209.4000	-23.7472	585.396
209.2000	-23.5037	588.369
209.0000	-23.4798	591.356
208.8000	-23.2139	594.353
208.6000	-23.1579	597.352
208.4000	-23.1653	600.358
208.2000	-23.2653	603.366
208.0000	-22.9201	606.381
207.8000	-22.3921	609.397
207.6000	-22.2629	612.413
207.4000	-21.7492	615.433
207.2000	-21.421	618.448
207.0000	-20.8735	621.461
206.8000	-20.3243	624.465
206.6000	-19.7711	627.461
206.4000	-19.0037	630.446
206.2000	-18.4891	633.421
206.0000	-17.8993	636.381
205.8000	-17.8797	639.319
205.6000	-17.6461	642.238
205.4000	-17.0016	645.137
205.2000	-16.4638	648.019
205.0000	-15.8682	650.875
204.8000	-15.5832	653.7
204.6000	-14.8735	656.495
204.4000	-14.5762	659.25
204.2000	-14.1642	661.965
204.0000	-13.7188	664.638
203.8000	-12.9535	667.267
203.6000	-11.8914	669.844
203.4000	-11.3189	672.368
203.2000	-10.9643	674.832
203.0000	-10.5862	677.237
202.8000	-10.5538	679.578
202.6000	-10.7072	681.851
202.4000	-9.96283	684.055
202.2000	-9.74863	686.184
202.0000	-8.86593	688.246
201.8000	-7.76489	690.234
201.6000	-7.04976	692.139
201.4000	-6.62936	693.964
201.2000	-6.29791	695.704
201.0000	-5.89462	697.365
200.8000	-5.70584	698.945
200.6000	-5.39349	700.445
200.4000	-5.13325	701.861
200.2000	-5.02939	703.2
200.0000	-4.95874	704.456
199.8000	-5.00583	705.634
199.6000	-4.54812	706.736
199.4000	-4.28531	707.762
199.2000	-3.99035	708.714
199.0000	-3.36341	709.597
198.8000	-3.2638	710.41
198.6000	-3.02596	711.151
198.4000	-2.77722	711.828
198.2000	-2.07804	712.442
198.0000	-2.31494	712.994
197.8000	-1.72325	713.493
197.6000	-0.98957	713.942
197.4000	-0.944026	714.337
197.2000	-1.4492	714.684
197.0000	-1.46	714.991
196.8000	-1.91276	715.258
196.6000	-1.63484	715.493
196.4000	-1.84063	715.695
196.2000	-2.08642	715.867
196.0000	-1.12825	716.02
195.8000	-0.95534	716.149
195.6000	-0.745651	716.263
195.4000	-1.12806	716.359
195.2000	-1.39329	716.436
195.0000	-1.33849	716.507

##### Extended Information
[Comments]
Sample name	Mota_1kx8_d07_tcep
Comment
User
Division
Company	EPFL

[Detailed Information]
Creation date	08.08.2017 17:09

Data array type	Linear data array * 2
Horizontal axis	Wavelength [nm]
Vertical axis(1)	CD [mdeg]
Vertical axis(2)	HT [V]
Start	250 nm
End	195 nm
Data interval	0.2 nm
Data points	276     

[Measurement Information]
Instrument Name	CD-Spectrometer
Model Name	J-815
Serial No.	A007961168

Accessory	PFD-425S
Accessory S/N	A001061180
  Temperature	25.00 C
  Control Sonsor	Holder
  Monitor Sensor	Holder
  Cell Length	10 mm

Photometric Mode	CD, HT
Measure Range	250 - 195 nm
Data pitch	0.2 nm
Sensitivity	Standard
D.I.T.	8 sec
Bandwidth	1.00 nm
Start Mode	Immediately
Scanning Speed	50 nm/min
Baseline Correction	None
Shutter Control	Auto
PMT Voltage	Auto
Accumulations	2
Solvent	PBS- tcep
Concentration	20 umol/L
End Temperature.	25 C
Start Temperature.	90 C
Temperature. Interval	5 C
Ramp Rate	5 C/min

