TITLE	Mota_1kx8_d07_tcep
DATA TYPE	
ORIGIN	JASCO
OWNER	
DATE	17/08/08
TIME	17:09:08
SPECTROMETER/DATA SYSTEM	
LOCALE	2055
RESOLUTION	
DELTAX	-0.2
XUNITS	NANOMETERS
YUNITS	CD [mdeg]
Y2UNITS	HT [V]
FIRSTX	  250.0000
LASTX	  195.0000
NPOINTS	     276
FIRSTY	     0.12726
MAXY	     4.30975
MINY	   -25.93587
XYDATA
250.0000	0.127264	308.259
249.8000	0.10166	308.533
249.6000	0.109564	308.811
249.4000	0.109274	309.091
249.2000	0.0901138	309.374
249.0000	0.0716618	309.658
248.8000	0.0656878	309.941
248.6000	0.0354033	310.226
248.4000	0.00577679	310.51
248.2000	-0.0234337	310.796
248.0000	-0.0315214	311.083
247.8000	-0.0472734	311.373
247.6000	-0.0848207	311.661
247.4000	-0.114617	311.952
247.2000	-0.120621	312.246
247.0000	-0.13485	312.535
246.8000	-0.171402	312.831
246.6000	-0.213856	313.129
246.4000	-0.234671	313.427
246.2000	-0.25358	313.733
246.0000	-0.29064	314.034
245.8000	-0.330417	314.338
245.6000	-0.387853	314.644
245.4000	-0.431912	314.951
245.2000	-0.474645	315.264
245.0000	-0.529777	315.579
244.8000	-0.590861	315.9
244.6000	-0.647245	316.22
244.4000	-0.687424	316.547
244.2000	-0.736915	316.879
244.0000	-0.785739	317.215
243.8000	-0.870576	317.558
243.6000	-0.941005	317.901
243.4000	-0.997966	318.251
243.2000	-1.0711	318.608
243.0000	-1.13815	318.965
242.8000	-1.2222	319.33
242.6000	-1.32595	319.696
242.4000	-1.42295	320.071
242.2000	-1.52097	320.452
242.0000	-1.61827	320.84
241.8000	-1.68312	321.235
241.6000	-1.78878	321.635
241.4000	-1.88446	322.037
241.2000	-2.00757	322.45
241.0000	-2.1294	322.871
240.8000	-2.24312	323.299
240.6000	-2.36439	323.734
240.4000	-2.50396	324.18
240.2000	-2.64034	324.632
240.0000	-2.78227	325.09
239.8000	-2.95129	325.559
239.6000	-3.12622	326.036
239.4000	-3.31922	326.523
239.2000	-3.49158	327.02
239.0000	-3.66243	327.527
238.8000	-3.81495	328.048
238.6000	-3.98596	328.577
238.4000	-4.16034	329.116
238.2000	-4.33253	329.669
238.0000	-4.53828	330.232
237.8000	-4.73827	330.81
237.6000	-4.94195	331.401
237.4000	-5.16746	332.004
237.2000	-5.3879	332.62
237.0000	-5.62316	333.252
236.8000	-5.86274	333.898
236.6000	-6.12418	334.561
236.4000	-6.39841	335.24
236.2000	-6.654	335.935
236.0000	-6.89333	336.646
235.8000	-7.16259	337.373
235.6000	-7.42811	338.118
235.4000	-7.70038	338.878
235.2000	-7.98585	339.656
235.0000	-8.28104	340.451
234.8000	-8.60531	341.266
234.6000	-8.91823	342.103
234.4000	-9.19771	342.963
234.2000	-9.49862	343.839
234.0000	-9.7914	344.734
233.8000	-10.1061	345.652
233.6000	-10.4121	346.59
233.4000	-10.7456	347.548
233.2000	-11.0691	348.526
233.0000	-11.3901	349.52
232.8000	-11.6875	350.533
232.6000	-12.0348	351.565
232.4000	-12.4056	352.621
232.2000	-12.7028	353.693
232.0000	-13.0104	354.784
231.8000	-13.3259	355.9
231.6000	-13.6628	357.036
231.4000	-13.9989	358.191
231.2000	-14.3584	359.363
231.0000	-14.6904	360.55
230.8000	-15.019	361.756
230.6000	-15.3857	362.978
230.4000	-15.6971	364.215
230.2000	-16.0441	365.469
230.0000	-16.2893	366.735
229.8000	-16.5068	368.014
229.6000	-16.8127	369.304
229.4000	-17.105	370.603
229.2000	-17.4071	371.918
229.0000	-17.7254	373.243
228.8000	-18.018	374.579
228.6000	-18.3313	375.929
228.4000	-18.6198	377.291
228.2000	-18.869	378.662
228.0000	-19.1389	380.044
227.8000	-19.4502	381.434
227.6000	-19.7958	382.83
227.4000	-20.0891	384.238
227.2000	-20.3271	385.657
227.0000	-20.6142	387.078
226.8000	-20.8584	388.511
226.6000	-21.0518	389.956
226.4000	-21.2482	391.409
226.2000	-21.5055	392.876
226.0000	-21.7102	394.355
225.8000	-21.8361	395.842
225.6000	-22.0007	397.341
225.4000	-22.2215	398.848
225.2000	-22.4487	400.36
225.0000	-22.6372	401.878
224.8000	-22.8233	403.409
224.6000	-23.0245	404.947
224.4000	-23.2405	406.499
224.2000	-23.3935	408.062
224.0000	-23.5077	409.64
223.8000	-23.657	411.232
223.6000	-23.8184	412.835
223.4000	-23.9213	414.449
223.2000	-24.0702	416.079
223.0000	-24.2192	417.73
222.8000	-24.3176	419.393
222.6000	-24.3851	421.072
222.4000	-24.4505	422.766
222.2000	-24.5687	424.473
222.0000	-24.6338	426.194
221.8000	-24.6594	427.935
221.6000	-24.7177	429.69
221.4000	-24.7534	431.464
221.2000	-24.806	433.255
221.0000	-24.7809	435.058
220.8000	-24.7479	436.882
220.6000	-24.796	438.721
220.4000	-24.8638	440.572
220.2000	-24.9276	442.447
220.0000	-24.8825	444.338
219.8000	-24.9228	446.243
219.6000	-24.9918	448.163
219.4000	-25.0964	450.102
219.2000	-25.0754	452.062
219.0000	-25.1558	454.035
218.8000	-25.3211	456.025
218.6000	-25.1586	458.038
218.4000	-25.0278	460.067
218.2000	-24.8918	462.113
218.0000	-24.8236	464.178
217.8000	-24.7938	466.259
217.6000	-24.6834	468.359
217.4000	-24.6146	470.478
217.2000	-24.593	472.61
217.0000	-24.4505	474.763
216.8000	-24.4668	476.934
216.6000	-24.5445	479.125
216.4000	-24.6204	481.332
216.2000	-24.5489	483.558
216.0000	-24.289	485.802
215.8000	-24.1113	488.07
215.6000	-24.0013	490.353
215.4000	-24.0736	492.657
215.2000	-24.0381	494.985
215.0000	-23.9112	497.328
214.8000	-23.8142	499.693
214.6000	-23.8131	502.08
214.4000	-23.8326	504.486
214.2000	-23.8367	506.913
214.0000	-23.9111	509.366
213.8000	-24.0503	511.842
213.6000	-24.0498	514.336
213.4000	-24.032	516.854
213.2000	-24.0557	519.393
213.0000	-24.0621	521.958
212.8000	-23.9778	524.541
212.6000	-24.253	527.143
212.4000	-24.3938	529.768
212.2000	-24.3372	532.414
212.0000	-24.5125	535.086
211.8000	-24.8421	537.779
211.6000	-25.0779	540.496
211.4000	-25.2854	543.238
211.2000	-25.4787	546
211.0000	-25.5717	548.784
210.8000	-25.7167	551.585
210.6000	-25.8637	554.415
210.4000	-25.9359	557.262
210.2000	-25.8294	560.13
210.0000	-25.5896	563.024
209.8000	-25.5269	565.934
209.6000	-25.404	568.863
209.4000	-25.7744	571.807
209.2000	-25.8295	574.768
209.0000	-25.7086	577.748
208.8000	-25.6221	580.741
208.6000	-25.3112	583.75
208.4000	-25.2694	586.773
208.2000	-25.0933	589.804
208.0000	-24.8008	592.846
207.8000	-24.5465	595.9
207.6000	-24.2205	598.965
207.4000	-23.636	602.039
207.2000	-22.8676	605.119
207.0000	-22.5368	608.205
206.8000	-22.3846	611.293
206.6000	-22.1904	614.383
206.4000	-21.8499	617.474
206.2000	-21.3232	620.562
206.0000	-20.4531	623.657
205.8000	-19.8438	626.744
205.6000	-19.2309	629.826
205.4000	-18.4859	632.904
205.2000	-17.829	635.967
205.0000	-17.3165	639.017
204.8000	-16.205	642.054
204.6000	-15.5031	645.068
204.4000	-14.7641	648.065
204.2000	-13.6464	651.037
204.0000	-12.8264	653.976
203.8000	-12.469	656.885
203.6000	-11.8456	659.757
203.4000	-11.1864	662.587
203.2000	-10.156	665.379
203.0000	-9.19374	668.121
202.8000	-7.74891	670.811
202.6000	-6.7356	673.45
202.4000	-6.55643	676.025
202.2000	-6.04992	678.541
202.0000	-5.2702	680.99
201.8000	-4.83022	683.367
201.6000	-4.20556	685.673
201.4000	-4.01881	687.907
201.2000	-3.60838	690.061
201.0000	-2.94715	692.133
200.8000	-2.74115	694.117
200.6000	-2.71104	696.019
200.4000	-2.78241	697.832
200.2000	-2.3775	699.562
200.0000	-1.9885	701.209
199.8000	-1.24144	702.769
199.6000	-1.03868	704.241
199.4000	-0.770074	705.629
199.2000	-0.571261	706.928
199.0000	0.386811	708.147
198.8000	0.737795	709.28
198.6000	0.919998	710.327
198.4000	0.881437	711.294
198.2000	0.549238	712.184
198.0000	0.826479	712.999
197.8000	1.3555	713.746
197.6000	0.943948	714.417
197.4000	0.885331	715.02
197.2000	1.054	715.56
197.0000	1.88369	716.047
196.8000	2.60473	716.474
196.6000	2.67568	716.845
196.4000	3.13059	717.166
196.2000	2.65259	717.44
196.0000	2.2172	717.672
195.8000	2.68262	717.869
195.6000	3.11505	718.031
195.4000	3.36467	718.161
195.2000	3.91459	718.267
195.0000	4.30975	718.351

##### Extended Information
[Comments]
Sample name	Mota_1kx8_d07_tcep
Comment
User
Division
Company	EPFL

[Detailed Information]
Creation date	08.08.2017 17:09

Data array type	Linear data array * 2
Horizontal axis	Wavelength [nm]
Vertical axis(1)	CD [mdeg]
Vertical axis(2)	HT [V]
Start	250 nm
End	195 nm
Data interval	0.2 nm
Data points	276     

[Measurement Information]
Instrument Name	CD-Spectrometer
Model Name	J-815
Serial No.	A007961168

Accessory	PFD-425S
Accessory S/N	A001061180
  Temperature	25.00 C
  Control Sonsor	Holder
  Monitor Sensor	Holder
  Cell Length	10 mm

Photometric Mode	CD, HT
Measure Range	250 - 195 nm
Data pitch	0.2 nm
Sensitivity	Standard
D.I.T.	8 sec
Bandwidth	1.00 nm
Start Mode	Immediately
Scanning Speed	50 nm/min
Baseline Correction	None
Shutter Control	Auto
PMT Voltage	Auto
Accumulations	2
Solvent	PBS- tcep
Concentration	20 umol/L
End Temperature.	25 C
Start Temperature.	90 C
Temperature. Interval	5 C
Ramp Rate	5 C/min

