TITLE	Mota_1kx8_d07_tcep
DATA TYPE	
ORIGIN	JASCO
OWNER	
DATE	17/08/08
TIME	17:09:08
SPECTROMETER/DATA SYSTEM	
LOCALE	2055
RESOLUTION	
DELTAX	-0.2
XUNITS	NANOMETERS
YUNITS	CD [mdeg]
Y2UNITS	HT [V]
FIRSTX	  250.0000
LASTX	  195.0000
NPOINTS	     276
FIRSTY	     0.02177
MAXY	     3.55615
MINY	   -21.32700
XYDATA
250.0000	0.0217712	309.067
249.8000	0.0267252	309.35
249.6000	-0.000953484	309.637
249.4000	-0.0279081	309.924
249.2000	-0.0536364	310.217
249.0000	-0.0658321	310.51
248.8000	-0.0665148	310.805
248.6000	-0.0670834	311.102
248.4000	-0.109384	311.399
248.2000	-0.145681	311.695
248.0000	-0.187628	311.996
247.8000	-0.225025	312.296
247.6000	-0.265416	312.6
247.4000	-0.282005	312.907
247.2000	-0.314131	313.214
247.0000	-0.35066	313.52
246.8000	-0.395863	313.829
246.6000	-0.415311	314.142
246.4000	-0.439624	314.452
246.2000	-0.495515	314.771
246.0000	-0.564194	315.091
245.8000	-0.620257	315.414
245.6000	-0.669222	315.739
245.4000	-0.702816	316.067
245.2000	-0.756896	316.398
245.0000	-0.785727	316.734
244.8000	-0.826531	317.072
244.6000	-0.896201	317.417
244.4000	-0.96305	317.764
244.2000	-1.03217	318.117
244.0000	-1.11128	318.477
243.8000	-1.17107	318.841
243.6000	-1.27403	319.21
243.4000	-1.35999	319.588
243.2000	-1.4545	319.968
243.0000	-1.54692	320.356
242.8000	-1.64322	320.746
242.6000	-1.71969	321.146
242.4000	-1.81228	321.55
242.2000	-1.91611	321.957
242.0000	-2.01147	322.377
241.8000	-2.11693	322.8
241.6000	-2.19991	323.236
241.4000	-2.30229	323.677
241.2000	-2.38232	324.126
241.0000	-2.51046	324.581
240.8000	-2.64238	325.047
240.6000	-2.77039	325.521
240.4000	-2.89989	326.006
240.2000	-3.0246	326.5
240.0000	-3.18753	327.006
239.8000	-3.3258	327.522
239.6000	-3.48353	328.045
239.4000	-3.63432	328.58
239.2000	-3.80872	329.126
239.0000	-3.96445	329.683
238.8000	-4.11805	330.257
238.6000	-4.2689	330.84
238.4000	-4.44818	331.434
238.2000	-4.62039	332.046
238.0000	-4.80499	332.671
237.8000	-5.00485	333.309
237.6000	-5.19887	333.963
237.4000	-5.38337	334.632
237.2000	-5.63534	335.318
237.0000	-5.84306	336.018
236.8000	-6.0518	336.732
236.6000	-6.28497	337.465
236.4000	-6.50928	338.215
236.2000	-6.71851	338.982
236.0000	-6.95572	339.772
235.8000	-7.20095	340.576
235.6000	-7.42782	341.397
235.4000	-7.68353	342.235
235.2000	-7.93296	343.095
235.0000	-8.18562	343.975
234.8000	-8.44633	344.875
234.6000	-8.72095	345.796
234.4000	-8.99888	346.739
234.2000	-9.27062	347.703
234.0000	-9.52995	348.691
233.8000	-9.81714	349.692
233.6000	-10.1165	350.714
233.4000	-10.3401	351.758
233.2000	-10.6093	352.821
233.0000	-10.882	353.909
232.8000	-11.1515	355.011
232.6000	-11.3909	356.135
232.4000	-11.6831	357.288
232.2000	-12.0291	358.455
232.0000	-12.3442	359.647
231.8000	-12.6394	360.868
231.6000	-12.9807	362.105
231.4000	-13.3035	363.367
231.2000	-13.5682	364.646
231.0000	-13.8917	365.945
230.8000	-14.2002	367.263
230.6000	-14.4975	368.599
230.4000	-14.7538	369.957
230.2000	-15.0582	371.335
230.0000	-15.3467	372.731
229.8000	-15.5724	374.148
229.6000	-15.8733	375.576
229.4000	-16.1508	377.019
229.2000	-16.392	378.482
229.0000	-16.6079	379.962
228.8000	-16.841	381.462
228.6000	-17.0453	382.974
228.4000	-17.3309	384.496
228.2000	-17.5708	386.038
228.0000	-17.7671	387.592
227.8000	-17.9214	389.166
227.6000	-18.1358	390.75
227.4000	-18.3132	392.346
227.2000	-18.5456	393.966
227.0000	-18.732	395.599
226.8000	-18.9553	397.25
226.6000	-19.1745	398.916
226.4000	-19.3396	400.597
226.2000	-19.5408	402.295
226.0000	-19.7085	404.009
225.8000	-19.8806	405.739
225.6000	-20.104	407.479
225.4000	-20.219	409.235
225.2000	-20.3393	411.002
225.0000	-20.4363	412.781
224.8000	-20.5184	414.578
224.6000	-20.6558	416.39
224.4000	-20.6834	418.223
224.2000	-20.7348	420.068
224.0000	-20.7819	421.928
223.8000	-20.8543	423.805
223.6000	-20.9361	425.693
223.4000	-20.969	427.603
223.2000	-21.0677	429.529
223.0000	-21.0907	431.476
222.8000	-21.0318	433.439
222.6000	-21.0487	435.421
222.4000	-21.1013	437.415
222.2000	-21.0608	439.431
222.0000	-21.0942	441.464
221.8000	-21.1133	443.52
221.6000	-21.1069	445.592
221.4000	-21.1504	447.676
221.2000	-21.205	449.784
221.0000	-21.1566	451.905
220.8000	-21.2155	454.046
220.6000	-21.319	456.201
220.4000	-21.3126	458.373
220.2000	-21.327	460.562
220.0000	-21.2812	462.767
219.8000	-21.2257	464.992
219.6000	-21.2849	467.232
219.4000	-21.2642	469.487
219.2000	-21.1452	471.761
219.0000	-20.9565	474.051
218.8000	-20.823	476.353
218.6000	-20.7512	478.675
218.4000	-20.7023	481.017
218.2000	-20.8287	483.365
218.0000	-20.8779	485.729
217.8000	-20.7286	488.11
217.6000	-20.7893	490.504
217.4000	-20.7909	492.918
217.2000	-20.7968	495.344
217.0000	-20.6176	497.791
216.8000	-20.5983	500.248
216.6000	-20.399	502.719
216.4000	-20.3154	505.2
216.2000	-20.2939	507.699
216.0000	-20.3377	510.212
215.8000	-20.3302	512.743
215.6000	-20.415	515.285
215.4000	-20.4759	517.841
215.2000	-20.4175	520.413
215.0000	-20.6023	522.995
214.8000	-20.7034	525.601
214.6000	-20.5776	528.219
214.4000	-20.5218	530.85
214.2000	-20.4181	533.501
214.0000	-20.0122	536.163
213.8000	-19.8021	538.841
213.6000	-19.6746	541.539
213.4000	-19.5095	544.248
213.2000	-19.4685	546.972
213.0000	-19.389	549.709
212.8000	-19.3041	552.463
212.6000	-19.3961	555.227
212.4000	-19.6814	558.006
212.2000	-19.6492	560.798
212.0000	-19.8473	563.604
211.8000	-19.97	566.424
211.6000	-19.8854	569.261
211.4000	-19.8769	572.109
211.2000	-20.0971	574.972
211.0000	-19.9675	577.845
210.8000	-19.7027	580.728
210.6000	-19.7237	583.622
210.4000	-19.6111	586.524
210.2000	-19.4021	589.438
210.0000	-19.5028	592.357
209.8000	-19.5602	595.284
209.6000	-19.5432	598.22
209.4000	-19.151	601.158
209.2000	-19.3763	604.097
209.0000	-18.9668	607.042
208.8000	-18.3675	609.988
208.6000	-18.338	612.932
208.4000	-17.7999	615.88
208.2000	-17.3155	618.816
208.0000	-17.2936	621.747
207.8000	-17.2499	624.67
207.6000	-17.1302	627.584
207.4000	-16.9367	630.49
207.2000	-17.3671	633.38
207.0000	-17.0596	636.255
206.8000	-16.1447	639.115
206.6000	-15.5942	641.948
206.4000	-15.1184	644.76
206.2000	-14.7654	647.544
206.0000	-13.9843	650.3
205.8000	-13.5251	653.024
205.6000	-12.9395	655.716
205.4000	-12.2894	658.367
205.2000	-11.7508	660.975
205.0000	-10.9099	663.536
204.8000	-10.4669	666.048
204.6000	-9.81886	668.502
204.4000	-9.17299	670.907
204.2000	-9.11978	673.245
204.0000	-8.84362	675.527
203.8000	-7.94931	677.744
203.6000	-7.23399	679.896
203.4000	-6.62705	681.977
203.2000	-6.07095	683.99
203.0000	-5.23011	685.928
202.8000	-4.6868	687.793
202.6000	-3.74063	689.584
202.4000	-3.25531	691.3
202.2000	-3.65373	692.934
202.0000	-3.77701	694.495
201.8000	-3.45733	695.983
201.6000	-3.29962	697.394
201.4000	-2.76738	698.734
201.2000	-1.67578	700.001
201.0000	-0.846591	701.189
200.8000	-0.817896	702.309
200.6000	0.135573	703.359
200.4000	1.17278	704.342
200.2000	0.726058	705.25
200.0000	0.96004	706.1
199.8000	0.886305	706.882
199.6000	1.35978	707.608
199.4000	1.25264	708.277
199.2000	1.20757	708.889
199.0000	0.903919	709.451
198.8000	0.450048	709.959
198.6000	1.13831	710.427
198.4000	1.17775	710.851
198.2000	1.40698	711.237
198.0000	1.85191	711.587
197.8000	2.20024	711.904
197.6000	2.42605	712.19
197.4000	3.55615	712.451
197.2000	3.5077	712.685
197.0000	2.71131	712.893
196.8000	2.27596	713.083
196.6000	2.11039	713.258
196.4000	1.90739	713.419
196.2000	1.5695	713.568
196.0000	1.27033	713.707
195.8000	1.25808	713.837
195.6000	1.63001	713.963
195.4000	1.95754	714.08
195.2000	1.6734	714.189
195.0000	1.38084	714.291

##### Extended Information
[Comments]
Sample name	Mota_1kx8_d07_tcep
Comment
User
Division
Company	EPFL

[Detailed Information]
Creation date	08.08.2017 17:09

Data array type	Linear data array * 2
Horizontal axis	Wavelength [nm]
Vertical axis(1)	CD [mdeg]
Vertical axis(2)	HT [V]
Start	250 nm
End	195 nm
Data interval	0.2 nm
Data points	276     

[Measurement Information]
Instrument Name	CD-Spectrometer
Model Name	J-815
Serial No.	A007961168

Accessory	PFD-425S
Accessory S/N	A001061180
  Temperature	25.00 C
  Control Sonsor	Holder
  Monitor Sensor	Holder
  Cell Length	10 mm

Photometric Mode	CD, HT
Measure Range	250 - 195 nm
Data pitch	0.2 nm
Sensitivity	Standard
D.I.T.	8 sec
Bandwidth	1.00 nm
Start Mode	Immediately
Scanning Speed	50 nm/min
Baseline Correction	None
Shutter Control	Auto
PMT Voltage	Auto
Accumulations	2
Solvent	PBS- tcep
Concentration	20 umol/L
End Temperature.	25 C
Start Temperature.	90 C
Temperature. Interval	5 C
Ramp Rate	5 C/min

