TITLE	Mota_1kx8_d03_noTCEP
DATA TYPE	
ORIGIN	JASCO
OWNER	
DATE	17/07/20
TIME	14:49:17
SPECTROMETER/DATA SYSTEM	
LOCALE	2055
RESOLUTION	
DELTAX	-0.2
XUNITS	NANOMETERS
YUNITS	CD [mdeg]
Y2UNITS	HT [V]
FIRSTX	  250.0000
LASTX	  195.0000
NPOINTS	     276
FIRSTY	    -0.35526
MAXY	     0.33239
MINY	   -38.56918
XYDATA
250.0000	-0.355262	311.002
249.8000	-0.386083	311.296
249.6000	-0.41015	311.594
249.4000	-0.420777	311.893
249.2000	-0.420137	312.195
249.0000	-0.430342	312.5
248.8000	-0.442543	312.805
248.6000	-0.452015	313.113
248.4000	-0.480376	313.425
248.2000	-0.491658	313.739
248.0000	-0.531913	314.056
247.8000	-0.588144	314.373
247.6000	-0.630924	314.693
247.4000	-0.678463	315.017
247.2000	-0.752914	315.345
247.0000	-0.828822	315.674
246.8000	-0.905852	316.005
246.6000	-0.979214	316.344
246.4000	-1.06409	316.683
246.2000	-1.13095	317.032
246.0000	-1.19977	317.382
245.8000	-1.27639	317.736
245.6000	-1.36542	318.093
245.4000	-1.45426	318.459
245.2000	-1.56147	318.831
245.0000	-1.65384	319.208
244.8000	-1.75295	319.594
244.6000	-1.85441	319.984
244.4000	-1.95691	320.379
244.2000	-2.09166	320.781
244.0000	-2.21301	321.194
243.8000	-2.33178	321.612
243.6000	-2.46701	322.04
243.4000	-2.61304	322.474
243.2000	-2.7574	322.92
243.0000	-2.90363	323.373
242.8000	-3.06799	323.833
242.6000	-3.23364	324.302
242.4000	-3.40525	324.781
242.2000	-3.57467	325.274
242.0000	-3.77016	325.778
241.8000	-3.94368	326.291
241.6000	-4.14051	326.817
241.4000	-4.32599	327.356
241.2000	-4.51639	327.907
241.0000	-4.72034	328.475
240.8000	-4.93317	329.054
240.6000	-5.14985	329.645
240.4000	-5.35987	330.253
240.2000	-5.56444	330.878
240.0000	-5.79277	331.517
239.8000	-6.06134	332.171
239.6000	-6.3298	332.843
239.4000	-6.63827	333.53
239.2000	-6.91412	334.238
239.0000	-7.2256	334.967
238.8000	-7.5548	335.714
238.6000	-7.84007	336.482
238.4000	-8.14347	337.269
238.2000	-8.48305	338.079
238.0000	-8.81855	338.908
237.8000	-9.155	339.762
237.6000	-9.45993	340.639
237.4000	-9.80825	341.537
237.2000	-10.1494	342.466
237.0000	-10.4566	343.42
236.8000	-10.7969	344.402
236.6000	-11.1333	345.411
236.4000	-11.5149	346.446
236.2000	-11.9052	347.512
236.0000	-12.2952	348.606
235.8000	-12.7073	349.73
235.6000	-13.1181	350.884
235.4000	-13.55	352.067
235.2000	-14.003	353.28
235.0000	-14.4781	354.523
234.8000	-14.9046	355.799
234.6000	-15.3613	357.111
234.4000	-15.8102	358.457
234.2000	-16.2576	359.839
234.0000	-16.7053	361.261
233.8000	-17.1983	362.712
233.6000	-17.7008	364.199
233.4000	-18.2156	365.719
233.2000	-18.7215	367.274
233.0000	-19.1958	368.861
232.8000	-19.6813	370.479
232.6000	-20.2135	372.132
232.4000	-20.6785	373.818
232.2000	-21.1868	375.539
232.0000	-21.7007	377.289
231.8000	-22.2643	379.079
231.6000	-22.8053	380.896
231.4000	-23.3234	382.746
231.2000	-23.7927	384.623
231.0000	-24.3189	386.531
230.8000	-24.8035	388.465
230.6000	-25.3529	390.432
230.4000	-25.905	392.419
230.2000	-26.4222	394.428
230.0000	-26.9334	396.459
229.8000	-27.3981	398.51
229.6000	-27.8949	400.583
229.4000	-28.3871	402.676
229.2000	-28.8761	404.782
229.0000	-29.406	406.908
228.8000	-29.8456	409.052
228.6000	-30.3093	411.209
228.4000	-30.7424	413.389
228.2000	-31.3014	415.578
228.0000	-31.7471	417.779
227.8000	-32.1807	419.989
227.6000	-32.6832	422.202
227.4000	-33.156	424.43
227.2000	-33.5016	426.663
227.0000	-33.8879	428.904
226.8000	-34.2728	431.157
226.6000	-34.6048	433.417
226.4000	-34.984	435.685
226.2000	-35.3082	437.958
226.0000	-35.5573	440.239
225.8000	-35.8432	442.525
225.6000	-36.1448	444.817
225.4000	-36.4199	447.115
225.2000	-36.5811	449.413
225.0000	-36.8034	451.719
224.8000	-37.0523	454.029
224.6000	-37.2332	456.345
224.4000	-37.3523	458.668
224.2000	-37.5232	460.999
224.0000	-37.6638	463.334
223.8000	-37.7515	465.675
223.6000	-37.84	468.031
223.4000	-38.0948	470.389
223.2000	-38.2624	472.761
223.0000	-38.2817	475.138
222.8000	-38.4681	477.523
222.6000	-38.5076	479.922
222.4000	-38.5692	482.326
222.2000	-38.5271	484.737
222.0000	-38.5173	487.154
221.8000	-38.4292	489.572
221.6000	-38.3599	492.002
221.4000	-38.3783	494.433
221.2000	-38.3803	496.876
221.0000	-38.3157	499.322
220.8000	-38.1371	501.776
220.6000	-38.0494	504.233
220.4000	-37.9341	506.694
220.2000	-37.774	509.16
220.0000	-37.7014	511.633
219.8000	-37.5141	514.109
219.6000	-37.3784	516.594
219.4000	-37.1372	519.082
219.2000	-36.8216	521.576
219.0000	-36.7725	524.066
218.8000	-36.5799	526.565
218.6000	-36.4109	529.066
218.4000	-36.2089	531.574
218.2000	-35.8163	534.085
218.0000	-35.4293	536.593
217.8000	-35.1136	539.108
217.6000	-34.8558	541.619
217.4000	-34.6812	544.131
217.2000	-34.5397	546.641
217.0000	-34.4084	549.149
216.8000	-34.0106	551.659
216.6000	-33.3388	554.17
216.4000	-33.3813	556.676
216.2000	-33.0854	559.181
216.0000	-32.8222	561.681
215.8000	-32.359	564.182
215.6000	-31.791	566.677
215.4000	-31.2442	569.171
215.2000	-30.8623	571.663
215.0000	-30.499	574.15
214.8000	-29.9337	576.637
214.6000	-29.5887	579.115
214.4000	-29.3207	581.589
214.2000	-29.0604	584.05
214.0000	-28.723	586.51
213.8000	-28.2805	588.958
213.6000	-27.6836	591.395
213.4000	-27.4254	593.821
213.2000	-27.1397	596.235
213.0000	-26.7909	598.632
212.8000	-26.6526	601.014
212.6000	-26.4561	603.378
212.4000	-26.0229	605.724
212.2000	-25.3782	608.048
212.0000	-24.7514	610.353
211.8000	-24.3013	612.627
211.6000	-23.9843	614.879
211.4000	-23.6923	617.103
211.2000	-23.08	619.298
211.0000	-22.4535	621.465
210.8000	-21.7451	623.6
210.6000	-21.0589	625.701
210.4000	-20.388	627.766
210.2000	-19.9223	629.792
210.0000	-19.6953	631.776
209.8000	-18.6963	633.722
209.6000	-17.9908	635.626
209.4000	-17.07	637.484
209.2000	-16.5502	639.296
209.0000	-16.2257	641.062
208.8000	-15.6955	642.782
208.6000	-15.0925	644.451
208.4000	-14.4382	646.071
208.2000	-13.7728	647.64
208.0000	-12.8436	649.157
207.8000	-11.5516	650.626
207.6000	-10.6493	652.041
207.4000	-9.81964	653.406
207.2000	-9.27695	654.715
207.0000	-9.14324	655.973
206.8000	-8.34603	657.177
206.6000	-7.5839	658.327
206.4000	-6.88772	659.428
206.2000	-6.34849	660.475
206.0000	-6.00104	661.471
205.8000	-5.42424	662.421
205.6000	-5.06068	663.316
205.4000	-4.35846	664.165
205.2000	-3.81628	664.966
205.0000	-3.72483	665.716
204.8000	-3.67258	666.422
204.6000	-3.0402	667.087
204.4000	-2.49287	667.707
204.2000	-2.10916	668.283
204.0000	-1.72783	668.819
203.8000	-1.21833	669.318
203.6000	-0.723184	669.781
203.4000	-0.402147	670.207
203.2000	-0.530835	670.6
203.0000	-0.49628	670.959
202.8000	-0.489602	671.292
202.6000	-0.299041	671.594
202.4000	0.0602589	671.869
202.2000	0.270522	672.121
202.0000	0.332386	672.345
201.8000	0.122928	672.547
201.6000	-0.0615713	672.73
201.4000	-0.511385	672.892
201.2000	-1.17326	673.035
201.0000	-1.30891	673.163
200.8000	-1.47646	673.276
200.6000	-1.50683	673.374
200.4000	-1.29797	673.459
200.2000	-1.57339	673.531
200.0000	-1.87232	673.591
199.8000	-2.00702	673.642
199.6000	-1.87374	673.686
199.4000	-1.56281	673.724
199.2000	-1.36126	673.755
199.0000	-1.2191	673.779
198.8000	-1.03357	673.796
198.6000	-1.20447	673.809
198.4000	-0.692724	673.821
198.2000	-0.343778	673.83
198.0000	-0.122418	673.832
197.8000	-0.774672	673.83
197.6000	-0.865663	673.83
197.4000	-0.857275	673.826
197.2000	-1.43823	673.819
197.0000	-1.78513	673.811
196.8000	-1.6329	673.805
196.6000	-1.63338	673.797
196.4000	-1.14374	673.789
196.2000	-0.724002	673.782
196.0000	-0.766397	673.77
195.8000	-0.992012	673.759
195.6000	-0.950214	673.75
195.4000	-1.30621	673.739
195.2000	-1.04718	673.73
195.0000	-0.687265	673.721

##### Extended Information
[Comments]
Sample name	Mota_1kx8_d03_noTCEP
Comment
User
Division
Company	EPFL

[Detailed Information]
Creation date	20.07.2017 14:49

Data array type	Linear data array * 2
Horizontal axis	Wavelength [nm]
Vertical axis(1)	CD [mdeg]
Vertical axis(2)	HT [V]
Start	250 nm
End	195 nm
Data interval	0.2 nm
Data points	276     

[Measurement Information]
Instrument Name	CD-Spectrometer
Model Name	J-815
Serial No.	A007961168

Accessory	PFD-425S
Accessory S/N	A001061180
  Temperature	24.99 C
  Control Sonsor	Holder
  Monitor Sensor	Holder
  Cell Length	10 mm

Photometric Mode	CD, HT
Measure Range	250 - 195 nm
Data pitch	0.2 nm
Sensitivity	Standard
D.I.T.	8 sec
Bandwidth	1.00 nm
Start Mode	Immediately
Scanning Speed	50 nm/min
Baseline Correction	None
Shutter Control	Auto
PMT Voltage	Auto
Accumulations	2
Solvent	PBS 
Concentration	20 umol/L
End Temperature.	25 C
Start Temperature.	90 C
Temperature. Interval	5 C
Ramp Rate	5 C/min

