TITLE	Mota_1kx8_d03_noTCEP
DATA TYPE	
ORIGIN	JASCO
OWNER	
DATE	17/07/20
TIME	14:49:17
SPECTROMETER/DATA SYSTEM	
LOCALE	2055
RESOLUTION	
DELTAX	-0.2
XUNITS	NANOMETERS
YUNITS	CD [mdeg]
Y2UNITS	HT [V]
FIRSTX	  250.0000
LASTX	  195.0000
NPOINTS	     276
FIRSTY	    -0.62692
MAXY	     1.80430
MINY	   -22.45036
XYDATA
250.0000	-0.626923	311.104
249.8000	-0.644758	311.412
249.6000	-0.690442	311.722
249.4000	-0.726743	312.039
249.2000	-0.781066	312.359
249.0000	-0.851308	312.681
248.8000	-0.888949	313.005
248.6000	-0.950279	313.331
248.4000	-0.980306	313.659
248.2000	-1.00009	313.99
248.0000	-1.06096	314.33
247.8000	-1.10591	314.671
247.6000	-1.1963	315.016
247.4000	-1.26657	315.361
247.2000	-1.32038	315.712
247.0000	-1.3598	316.064
246.8000	-1.41251	316.421
246.6000	-1.47188	316.781
246.4000	-1.53891	317.143
246.2000	-1.60437	317.517
246.0000	-1.64931	317.892
245.8000	-1.7013	318.272
245.6000	-1.77697	318.657
245.4000	-1.87393	319.047
245.2000	-1.95993	319.446
245.0000	-2.034	319.851
244.8000	-2.12415	320.263
244.6000	-2.24648	320.682
244.4000	-2.33416	321.108
244.2000	-2.4443	321.541
244.0000	-2.52254	321.982
243.8000	-2.60712	322.432
243.6000	-2.69084	322.891
243.4000	-2.80116	323.364
243.2000	-2.92886	323.842
243.0000	-3.04323	324.332
242.8000	-3.15486	324.83
242.6000	-3.26495	325.335
242.4000	-3.37194	325.85
242.2000	-3.49642	326.379
242.0000	-3.62904	326.921
241.8000	-3.75976	327.476
241.6000	-3.9376	328.045
241.4000	-4.06881	328.623
241.2000	-4.22161	329.216
241.0000	-4.35507	329.825
240.8000	-4.48522	330.448
240.6000	-4.62178	331.085
240.4000	-4.81912	331.738
240.2000	-5.0267	332.404
240.0000	-5.21361	333.092
239.8000	-5.4037	333.793
239.6000	-5.57279	334.515
239.4000	-5.75399	335.254
239.2000	-5.97733	336.012
239.0000	-6.19752	336.794
238.8000	-6.40175	337.595
238.6000	-6.57238	338.414
238.4000	-6.81064	339.253
238.2000	-7.01783	340.111
238.0000	-7.20104	340.998
237.8000	-7.40581	341.905
237.6000	-7.6257	342.841
237.4000	-7.86533	343.8
237.2000	-8.0752	344.791
237.0000	-8.29539	345.807
236.8000	-8.51215	346.853
236.6000	-8.72707	347.924
236.4000	-8.96456	349.024
236.2000	-9.24219	350.153
236.0000	-9.50355	351.316
235.8000	-9.74406	352.509
235.6000	-9.97909	353.733
235.4000	-10.1852	354.989
235.2000	-10.4552	356.275
235.0000	-10.6913	357.592
234.8000	-10.9567	358.947
234.6000	-11.2247	360.336
234.4000	-11.4743	361.76
234.2000	-11.7325	363.223
234.0000	-12.0365	364.721
233.8000	-12.2871	366.258
233.6000	-12.5381	367.83
233.4000	-12.7973	369.441
233.2000	-13.1024	371.091
233.0000	-13.355	372.771
232.8000	-13.5961	374.488
232.6000	-13.8759	376.239
232.4000	-14.1307	378.03
232.2000	-14.372	379.859
232.0000	-14.6075	381.723
231.8000	-14.877	383.626
231.6000	-15.1839	385.566
231.4000	-15.4196	387.543
231.2000	-15.6317	389.555
231.0000	-15.9233	391.6
230.8000	-16.1456	393.677
230.6000	-16.3986	395.786
230.4000	-16.6339	397.925
230.2000	-16.9011	400.095
230.0000	-17.1382	402.293
229.8000	-17.3778	404.518
229.6000	-17.5497	406.771
229.4000	-17.6984	409.047
229.2000	-17.9237	411.346
229.0000	-18.2047	413.669
228.8000	-18.54	416.015
228.6000	-18.7545	418.386
228.4000	-18.9681	420.777
228.2000	-19.2391	423.184
228.0000	-19.4592	425.615
227.8000	-19.5542	428.059
227.6000	-19.775	430.518
227.4000	-19.9096	432.993
227.2000	-20.0816	435.481
227.0000	-20.2525	437.981
226.8000	-20.3669	440.495
226.6000	-20.5392	443.025
226.4000	-20.7844	445.564
226.2000	-21.0984	448.113
226.0000	-21.1923	450.679
225.8000	-21.3255	453.25
225.6000	-21.3722	455.83
225.4000	-21.4775	458.421
225.2000	-21.5447	461.017
225.0000	-21.6047	463.621
224.8000	-21.7897	466.232
224.6000	-21.9229	468.849
224.4000	-21.9983	471.474
224.2000	-22.1315	474.106
224.0000	-22.2429	476.743
223.8000	-22.321	479.39
223.6000	-22.4212	482.043
223.4000	-22.4504	484.702
223.2000	-22.3825	487.376
223.0000	-22.3118	490.056
222.8000	-22.311	492.744
222.6000	-22.3466	495.442
222.4000	-22.2464	498.141
222.2000	-22.102	500.844
222.0000	-22.0281	503.551
221.8000	-21.7512	506.268
221.6000	-21.7009	508.99
221.4000	-21.7573	511.712
221.2000	-21.9691	514.442
221.0000	-21.9935	517.171
220.8000	-21.946	519.903
220.6000	-21.8161	522.645
220.4000	-21.7495	525.39
220.2000	-21.5893	528.138
220.0000	-21.5823	530.884
219.8000	-21.3877	533.632
219.6000	-21.1973	536.384
219.4000	-21.1196	539.137
219.2000	-21.1363	541.891
219.0000	-21.1257	544.642
218.8000	-21.263	547.394
218.6000	-21.2005	550.149
218.4000	-21.1466	552.906
218.2000	-21.0413	555.662
218.0000	-21.2486	558.411
217.8000	-21.3855	561.163
217.6000	-21.3812	563.917
217.4000	-21.2439	566.669
217.2000	-20.903	569.418
217.0000	-20.5061	572.165
216.8000	-20.4078	574.909
216.6000	-20.2583	577.652
216.4000	-20.4611	580.388
216.2000	-20.3809	583.119
216.0000	-20.4604	585.847
215.8000	-20.5254	588.575
215.6000	-20.4655	591.302
215.4000	-20.3937	594.02
215.2000	-20.5684	596.733
215.0000	-20.6833	599.438
214.8000	-20.7769	602.141
214.6000	-20.3579	604.84
214.4000	-20.3305	607.535
214.2000	-20.2383	610.219
214.0000	-20.0538	612.897
213.8000	-19.7684	615.562
213.6000	-19.4136	618.212
213.4000	-19.1921	620.852
213.2000	-18.8905	623.479
213.0000	-18.4459	626.09
212.8000	-18.015	628.685
212.6000	-17.6237	631.261
212.4000	-17.3974	633.818
212.2000	-17.1638	636.349
212.0000	-16.9133	638.858
211.8000	-16.5383	641.336
211.6000	-15.8326	643.786
211.4000	-15.1449	646.201
211.2000	-14.5359	648.587
211.0000	-14.0498	650.93
210.8000	-13.8373	653.229
210.6000	-13.5739	655.486
210.4000	-13.154	657.697
210.2000	-12.8121	659.862
210.0000	-12.7551	661.97
209.8000	-12.0095	664.029
209.6000	-11.1958	666.033
209.4000	-10.6362	667.981
209.2000	-10.4846	669.862
209.0000	-10.2664	671.686
208.8000	-9.97164	673.448
208.6000	-9.04547	675.146
208.4000	-8.34047	676.787
208.2000	-7.36202	678.357
208.0000	-7.00517	679.858
207.8000	-6.3649	681.294
207.6000	-6.01312	682.661
207.4000	-6.17517	683.961
207.2000	-5.77829	685.194
207.0000	-5.48274	686.365
206.8000	-4.95833	687.47
206.6000	-4.50831	688.511
206.4000	-4.26589	689.489
206.2000	-3.91635	690.404
206.0000	-3.74435	691.256
205.8000	-3.23123	692.049
205.6000	-2.99765	692.785
205.4000	-2.4944	693.465
205.2000	-2.53505	694.09
205.0000	-2.22204	694.668
204.8000	-1.88732	695.197
204.6000	-1.6191	695.677
204.4000	-1.49828	696.108
204.2000	-0.831925	696.501
204.0000	-0.450981	696.853
203.8000	-0.762923	697.165
203.6000	-0.744432	697.443
203.4000	-0.279358	697.686
203.2000	-0.314593	697.894
203.0000	-0.532482	698.071
202.8000	-0.365132	698.222
202.6000	0.0581322	698.349
202.4000	0.217805	698.454
202.2000	0.398397	698.539
202.0000	0.256267	698.605
201.8000	-0.088431	698.655
201.6000	-0.193594	698.695
201.4000	-0.225059	698.726
201.2000	-0.369438	698.748
201.0000	0.420467	698.772
200.8000	1.29874	698.791
200.6000	1.8043	698.807
200.4000	1.61839	698.818
200.2000	1.05343	698.827
200.0000	1.13962	698.839
199.8000	1.1238	698.852
199.6000	1.24222	698.862
199.4000	1.16816	698.874
199.2000	1.07468	698.885
199.0000	0.838711	698.896
198.8000	1.05977	698.909
198.6000	1.24284	698.919
198.4000	0.834771	698.926
198.2000	0.62624	698.933
198.0000	0.394675	698.942
197.8000	0.336992	698.95
197.6000	-0.0737757	698.959
197.4000	-0.384585	698.969
197.2000	-0.116014	698.983
197.0000	-0.103759	698.999
196.8000	0.120154	699.018
196.6000	0.612868	699.043
196.4000	0.591159	699.071
196.2000	0.710862	699.103
196.0000	0.925199	699.139
195.8000	1.20315	699.179
195.6000	1.53596	699.224
195.4000	1.11977	699.266
195.2000	1.19663	699.311
195.0000	1.08023	699.357

##### Extended Information
[Comments]
Sample name	Mota_1kx8_d03_noTCEP
Comment
User
Division
Company	EPFL

[Detailed Information]
Creation date	20.07.2017 14:49

Data array type	Linear data array * 2
Horizontal axis	Wavelength [nm]
Vertical axis(1)	CD [mdeg]
Vertical axis(2)	HT [V]
Start	250 nm
End	195 nm
Data interval	0.2 nm
Data points	276     

[Measurement Information]
Instrument Name	CD-Spectrometer
Model Name	J-815
Serial No.	A007961168

Accessory	PFD-425S
Accessory S/N	A001061180
  Temperature	24.99 C
  Control Sonsor	Holder
  Monitor Sensor	Holder
  Cell Length	10 mm

Photometric Mode	CD, HT
Measure Range	250 - 195 nm
Data pitch	0.2 nm
Sensitivity	Standard
D.I.T.	8 sec
Bandwidth	1.00 nm
Start Mode	Immediately
Scanning Speed	50 nm/min
Baseline Correction	None
Shutter Control	Auto
PMT Voltage	Auto
Accumulations	2
Solvent	PBS 
Concentration	20 umol/L
End Temperature.	25 C
Start Temperature.	90 C
Temperature. Interval	5 C
Ramp Rate	5 C/min

