TITLE	Mota_1kx8_d03_noTCEP
DATA TYPE	
ORIGIN	JASCO
OWNER	
DATE	17/07/20
TIME	14:49:17
SPECTROMETER/DATA SYSTEM	
LOCALE	2055
RESOLUTION	
DELTAX	-0.2
XUNITS	NANOMETERS
YUNITS	CD [mdeg]
Y2UNITS	HT [V]
FIRSTX	  250.0000
LASTX	  195.0000
NPOINTS	     276
FIRSTY	    -0.14750
MAXY	     2.79988
MINY	   -43.65895
XYDATA
250.0000	-0.147497	311.004
249.8000	-0.160398	311.29
249.6000	-0.187528	311.581
249.4000	-0.217171	311.871
249.2000	-0.238504	312.163
249.0000	-0.255246	312.463
248.8000	-0.269328	312.759
248.6000	-0.299775	313.058
248.4000	-0.346534	313.359
248.2000	-0.390109	313.663
248.0000	-0.425384	313.97
247.8000	-0.479084	314.277
247.6000	-0.514263	314.587
247.4000	-0.563151	314.899
247.2000	-0.600827	315.215
247.0000	-0.684205	315.532
246.8000	-0.764198	315.854
246.6000	-0.837281	316.179
246.4000	-0.918773	316.502
246.2000	-0.958875	316.836
246.0000	-1.003	317.168
245.8000	-1.0555	317.506
245.6000	-1.14439	317.85
245.4000	-1.21541	318.2
245.2000	-1.29148	318.555
245.0000	-1.39504	318.914
244.8000	-1.47225	319.278
244.6000	-1.55433	319.648
244.4000	-1.66895	320.022
244.2000	-1.78583	320.403
244.0000	-1.93243	320.792
243.8000	-2.06145	321.187
243.6000	-2.18148	321.591
243.4000	-2.29234	322.003
243.2000	-2.43747	322.424
243.0000	-2.603	322.85
242.8000	-2.76324	323.286
242.6000	-2.9039	323.728
242.4000	-3.05448	324.179
242.2000	-3.20951	324.639
242.0000	-3.36823	325.115
241.8000	-3.54741	325.6
241.6000	-3.73414	326.096
241.4000	-3.92364	326.601
241.2000	-4.14535	327.119
241.0000	-4.36211	327.65
240.8000	-4.57743	328.195
240.6000	-4.81654	328.753
240.4000	-5.05603	329.325
240.2000	-5.28176	329.907
240.0000	-5.53606	330.505
239.8000	-5.81356	331.119
239.6000	-6.12755	331.747
239.4000	-6.38147	332.392
239.2000	-6.67805	333.052
239.0000	-6.97581	333.731
238.8000	-7.30393	334.43
238.6000	-7.62497	335.145
238.4000	-7.93114	335.878
238.2000	-8.28242	336.636
238.0000	-8.6661	337.414
237.8000	-9.01987	338.216
237.6000	-9.39292	339.036
237.4000	-9.78872	339.88
237.2000	-10.1795	340.745
237.0000	-10.5717	341.637
236.8000	-10.9928	342.553
236.6000	-11.4099	343.495
236.4000	-11.8387	344.463
236.2000	-12.2833	345.457
236.0000	-12.7663	346.48
235.8000	-13.2675	347.531
235.6000	-13.7738	348.609
235.4000	-14.3155	349.718
235.2000	-14.8837	350.858
235.0000	-15.4386	352.026
234.8000	-15.9894	353.223
234.6000	-16.5294	354.453
234.4000	-17.0953	355.717
234.2000	-17.6752	357.015
234.0000	-18.2407	358.343
233.8000	-18.8206	359.709
233.6000	-19.4254	361.107
233.4000	-20.0365	362.536
233.2000	-20.634	364.001
233.0000	-21.2004	365.49
232.8000	-21.8039	367.015
232.6000	-22.3962	368.573
232.4000	-22.9845	370.159
232.2000	-23.6163	371.78
232.0000	-24.2506	373.429
231.8000	-24.9466	375.111
231.6000	-25.5903	376.82
231.4000	-26.181	378.562
231.2000	-26.8141	380.329
231.0000	-27.4085	382.126
230.8000	-28.0181	383.945
230.6000	-28.5806	385.79
230.4000	-29.1578	387.657
230.2000	-29.7098	389.545
230.0000	-30.3791	391.453
229.8000	-30.9694	393.378
229.6000	-31.4654	395.325
229.4000	-31.996	397.287
229.2000	-32.4946	399.267
229.0000	-33.0224	401.264
228.8000	-33.5668	403.271
228.6000	-34.0712	405.287
228.4000	-34.5818	407.32
228.2000	-35.1104	409.361
228.0000	-35.6106	411.415
227.8000	-36.123	413.474
227.6000	-36.621	415.54
227.4000	-37.0706	417.612
227.2000	-37.521	419.689
227.0000	-37.8912	421.772
226.8000	-38.341	423.859
226.6000	-38.7218	425.951
226.4000	-39.091	428.053
226.2000	-39.4199	430.156
226.0000	-39.83	432.264
225.8000	-40.2383	434.374
225.6000	-40.6258	436.49
225.4000	-40.9507	438.61
225.2000	-41.2312	440.73
225.0000	-41.4288	442.853
224.8000	-41.6665	444.975
224.6000	-41.8226	447.1
224.4000	-41.9979	449.227
224.2000	-42.156	451.365
224.0000	-42.4028	453.512
223.8000	-42.6019	455.667
223.6000	-42.9633	457.827
223.4000	-43.0614	459.992
223.2000	-43.0185	462.17
223.0000	-43.2334	464.348
222.8000	-43.287	466.536
222.6000	-43.3879	468.73
222.4000	-43.4947	470.931
222.2000	-43.4987	473.134
222.0000	-43.5569	475.351
221.8000	-43.611	477.57
221.6000	-43.5706	479.805
221.4000	-43.5981	482.041
221.2000	-43.6589	484.286
221.0000	-43.5257	486.534
220.8000	-43.4666	488.794
220.6000	-43.2749	491.059
220.4000	-43.0601	493.331
220.2000	-42.8788	495.612
220.0000	-42.6285	497.9
219.8000	-42.5241	500.193
219.6000	-42.4673	502.497
219.4000	-42.4284	504.806
219.2000	-42.1785	507.125
219.0000	-41.8888	509.45
218.8000	-41.7396	511.782
218.6000	-41.4943	514.131
218.4000	-41.3325	516.484
218.2000	-41.2235	518.848
218.0000	-41.0906	521.216
217.8000	-40.9886	523.594
217.6000	-40.8239	525.977
217.4000	-40.6426	528.364
217.2000	-40.3907	530.755
217.0000	-40.0068	533.153
216.8000	-39.5895	535.562
216.6000	-39.4332	537.975
216.4000	-39.1964	540.392
216.2000	-39.0931	542.816
216.0000	-39.1385	545.248
215.8000	-38.9535	547.687
215.6000	-38.7073	550.136
215.4000	-38.4738	552.583
215.2000	-38.2655	555.041
215.0000	-37.6925	557.504
214.8000	-37.2153	559.974
214.6000	-36.5499	562.453
214.4000	-35.9809	564.935
214.2000	-35.6406	567.422
214.0000	-35.2632	569.914
213.8000	-34.6167	572.408
213.6000	-34.1535	574.904
213.4000	-33.9112	577.401
213.2000	-33.5823	579.896
213.0000	-33.3406	582.392
212.8000	-33.0547	584.886
212.6000	-32.969	587.376
212.4000	-32.6316	589.862
212.2000	-32.4057	592.335
212.0000	-31.8962	594.796
211.8000	-31.4423	597.249
211.6000	-30.7858	599.686
211.4000	-30.0672	602.111
211.2000	-29.3963	604.52
211.0000	-28.9862	606.908
210.8000	-28.4363	609.277
210.6000	-27.9346	611.624
210.4000	-27.3043	613.95
210.2000	-26.552	616.246
210.0000	-25.6027	618.511
209.8000	-25.1191	620.744
209.6000	-24.424	622.944
209.4000	-23.1864	625.109
209.2000	-22.7761	627.233
209.0000	-21.9442	629.321
208.8000	-20.95	631.37
208.6000	-20.418	633.373
208.4000	-20.1366	635.331
208.2000	-19.8131	637.243
208.0000	-19.4947	639.101
207.8000	-18.5253	640.92
207.6000	-17.8329	642.682
207.4000	-17.1605	644.395
207.2000	-16.9326	646.053
207.0000	-16.5775	647.657
206.8000	-15.745	649.208
206.6000	-14.9233	650.708
206.4000	-13.8781	652.151
206.2000	-13.0897	653.538
206.0000	-12.2271	654.868
205.8000	-11.7843	656.14
205.6000	-10.7349	657.363
205.4000	-9.82439	658.532
205.2000	-8.809	659.647
205.0000	-8.45321	660.704
204.8000	-8.37833	661.707
204.6000	-7.68922	662.662
204.4000	-7.1228	663.565
204.2000	-6.77737	664.415
204.0000	-6.80896	665.213
203.8000	-6.71137	665.964
203.6000	-6.15428	666.673
203.4000	-5.98234	667.334
203.2000	-5.57345	667.954
203.0000	-5.00773	668.534
202.8000	-4.88661	669.074
202.6000	-4.4672	669.579
202.4000	-4.15633	670.044
202.2000	-4.02181	670.473
202.0000	-3.54792	670.872
201.8000	-2.54256	671.24
201.6000	-1.83583	671.577
201.4000	-0.88897	671.887
201.2000	-0.757161	672.166
201.0000	-0.710442	672.421
200.8000	-0.469187	672.65
200.6000	-0.0749605	672.86
200.4000	0.207562	673.048
200.2000	0.332451	673.217
200.0000	0.383035	673.366
199.8000	0.426558	673.502
199.6000	0.670288	673.622
199.4000	1.0434	673.728
199.2000	1.44173	673.824
199.0000	1.68413	673.905
198.8000	1.64081	673.974
198.6000	1.11452	674.031
198.4000	1.21879	674.084
198.2000	1.66585	674.126
198.0000	1.95474	674.164
197.8000	2.08344	674.194
197.6000	2.15904	674.217
197.4000	2.79988	674.241
197.2000	2.78856	674.257
197.0000	2.55599	674.268
196.8000	2.17269	674.274
196.6000	2.18405	674.28
196.4000	2.1035	674.284
196.2000	2.13353	674.285
196.0000	2.55562	674.282
195.8000	2.66206	674.28
195.6000	2.67585	674.276
195.4000	2.33128	674.269
195.2000	1.94817	674.262
195.0000	1.68836	674.254

##### Extended Information
[Comments]
Sample name	Mota_1kx8_d03_noTCEP
Comment
User
Division
Company	EPFL

[Detailed Information]
Creation date	20.07.2017 14:49

Data array type	Linear data array * 2
Horizontal axis	Wavelength [nm]
Vertical axis(1)	CD [mdeg]
Vertical axis(2)	HT [V]
Start	250 nm
End	195 nm
Data interval	0.2 nm
Data points	276     

[Measurement Information]
Instrument Name	CD-Spectrometer
Model Name	J-815
Serial No.	A007961168

Accessory	PFD-425S
Accessory S/N	A001061180
  Temperature	24.99 C
  Control Sonsor	Holder
  Monitor Sensor	Holder
  Cell Length	10 mm

Photometric Mode	CD, HT
Measure Range	250 - 195 nm
Data pitch	0.2 nm
Sensitivity	Standard
D.I.T.	8 sec
Bandwidth	1.00 nm
Start Mode	Immediately
Scanning Speed	50 nm/min
Baseline Correction	None
Shutter Control	Auto
PMT Voltage	Auto
Accumulations	2
Solvent	PBS 
Concentration	20 umol/L
End Temperature.	25 C
Start Temperature.	90 C
Temperature. Interval	5 C
Ramp Rate	5 C/min

