TITLE	Mota_1kx8_d06_TCEP_melting
DATA TYPE	
ORIGIN	JASCO
OWNER	
DATE	17/07/12
TIME	13:24:57
SPECTROMETER/DATA SYSTEM	
LOCALE	2055
RESOLUTION	
DELTAX	-0.2
XUNITS	NANOMETERS
YUNITS	CD [mdeg]
Y2UNITS	HT [V]
FIRSTX	  250.0000
LASTX	  195.0000
NPOINTS	     276
FIRSTY	    -0.16555
MAXY	    -0.16555
MINY	   -23.13768
XYDATA
250.0000	-0.165552	306.651
249.8000	-0.173728	306.925
249.6000	-0.179802	307.203
249.4000	-0.181133	307.483
249.2000	-0.212972	307.764
249.0000	-0.222358	308.048
248.8000	-0.23665	308.331
248.6000	-0.278101	308.616
248.4000	-0.302533	308.897
248.2000	-0.331094	309.183
248.0000	-0.366931	309.47
247.8000	-0.411368	309.76
247.6000	-0.429942	310.049
247.4000	-0.421174	310.344
247.2000	-0.418586	310.637
247.0000	-0.418793	310.933
246.8000	-0.430853	311.232
246.6000	-0.444278	311.53
246.4000	-0.442302	311.83
246.2000	-0.454129	312.135
246.0000	-0.481018	312.439
245.8000	-0.523378	312.748
245.6000	-0.570097	313.06
245.4000	-0.600349	313.375
245.2000	-0.631432	313.693
245.0000	-0.66862	314.016
244.8000	-0.702039	314.342
244.6000	-0.767224	314.672
244.4000	-0.800222	315.002
244.2000	-0.859217	315.342
244.0000	-0.915786	315.683
243.8000	-0.956842	316.028
243.6000	-1.03243	316.381
243.4000	-1.12105	316.738
243.2000	-1.22033	317.102
243.0000	-1.3079	317.472
242.8000	-1.39253	317.845
242.6000	-1.46913	318.223
242.4000	-1.55462	318.608
242.2000	-1.64578	318.998
242.0000	-1.71242	319.395
241.8000	-1.8017	319.802
241.6000	-1.85845	320.215
241.4000	-1.93778	320.636
241.2000	-2.00087	321.062
241.0000	-2.09476	321.498
240.8000	-2.19398	321.944
240.6000	-2.30718	322.395
240.4000	-2.45778	322.857
240.2000	-2.60908	323.328
240.0000	-2.72741	323.809
239.8000	-2.88224	324.3
239.6000	-3.02082	324.805
239.4000	-3.18087	325.32
239.2000	-3.3166	325.843
239.0000	-3.46478	326.38
238.8000	-3.61338	326.926
238.6000	-3.76996	327.485
238.4000	-3.91995	328.057
238.2000	-4.09505	328.643
238.0000	-4.24799	329.245
237.8000	-4.39946	329.863
237.6000	-4.53767	330.492
237.4000	-4.70383	331.14
237.2000	-4.88217	331.806
237.0000	-5.04426	332.488
236.8000	-5.19617	333.186
236.6000	-5.38493	333.901
236.4000	-5.57882	334.636
236.2000	-5.77614	335.392
236.0000	-5.97434	336.168
235.8000	-6.15878	336.964
235.6000	-6.38552	337.781
235.4000	-6.60403	338.622
235.2000	-6.81168	339.486
235.0000	-7.02268	340.37
234.8000	-7.26596	341.279
234.6000	-7.49229	342.213
234.4000	-7.7382	343.17
234.2000	-7.98576	344.155
234.0000	-8.24389	345.164
233.8000	-8.49288	346.203
233.6000	-8.7156	347.268
233.4000	-8.95751	348.356
233.2000	-9.23326	349.471
233.0000	-9.47535	350.604
232.8000	-9.73013	351.767
232.6000	-10.0277	352.955
232.4000	-10.2967	354.166
232.2000	-10.5825	355.406
232.0000	-10.8788	356.67
231.8000	-11.1578	357.966
231.6000	-11.458	359.286
231.4000	-11.7657	360.632
231.2000	-12.0523	362
231.0000	-12.3696	363.395
230.8000	-12.7114	364.808
230.6000	-13.0341	366.24
230.4000	-13.3375	367.696
230.2000	-13.6596	369.168
230.0000	-13.9765	370.661
229.8000	-14.2945	372.173
229.6000	-14.5939	373.695
229.4000	-14.8922	375.236
229.2000	-15.2004	376.793
229.0000	-15.4862	378.364
228.8000	-15.741	379.944
228.6000	-16.0267	381.536
228.4000	-16.3108	383.137
228.2000	-16.5968	384.749
228.0000	-16.8876	386.369
227.8000	-17.1582	387.995
227.6000	-17.4587	389.627
227.4000	-17.7456	391.268
227.2000	-18.0395	392.909
227.0000	-18.2968	394.553
226.8000	-18.5319	396.207
226.6000	-18.7864	397.864
226.4000	-19.0553	399.531
226.2000	-19.3457	401.194
226.0000	-19.5072	402.86
225.8000	-19.6977	404.527
225.6000	-19.8741	406.196
225.4000	-20.0696	407.87
225.2000	-20.2675	409.537
225.0000	-20.4835	411.204
224.8000	-20.6153	412.87
224.6000	-20.8259	414.539
224.4000	-21.0013	416.206
224.2000	-21.096	417.88
224.0000	-21.2015	419.551
223.8000	-21.3369	421.226
223.6000	-21.4651	422.905
223.4000	-21.5231	424.58
223.2000	-21.5346	426.264
223.0000	-21.6058	427.949
222.8000	-21.7015	429.637
222.6000	-21.8065	431.322
222.4000	-21.8976	433.01
222.2000	-21.9775	434.704
222.0000	-22.0614	436.404
221.8000	-22.1198	438.104
221.6000	-22.1612	439.81
221.4000	-22.1995	441.518
221.2000	-22.2862	443.234
221.0000	-22.3257	444.952
220.8000	-22.4486	446.673
220.6000	-22.4703	448.395
220.4000	-22.4489	450.123
220.2000	-22.5238	451.852
220.0000	-22.5919	453.581
219.8000	-22.5731	455.316
219.6000	-22.5547	457.058
219.4000	-22.5987	458.81
219.2000	-22.7113	460.56
219.0000	-22.8674	462.321
218.8000	-22.9184	464.083
218.6000	-22.834	465.853
218.4000	-22.7862	467.629
218.2000	-22.7365	469.406
218.0000	-22.8736	471.186
217.8000	-22.8353	472.972
217.6000	-22.8449	474.762
217.4000	-22.8809	476.557
217.2000	-22.7226	478.358
217.0000	-22.642	480.163
216.8000	-22.6705	481.982
216.6000	-22.7447	483.799
216.4000	-22.7213	485.626
216.2000	-22.5612	487.465
216.0000	-22.4899	489.31
215.8000	-22.5837	491.161
215.6000	-22.6823	493.02
215.4000	-22.7475	494.89
215.2000	-22.7809	496.774
215.0000	-22.9343	498.671
214.8000	-22.971	500.578
214.6000	-22.9186	502.501
214.4000	-22.8526	504.437
214.2000	-22.7236	506.39
214.0000	-22.5753	508.357
213.8000	-22.4136	510.341
213.6000	-22.3231	512.338
213.4000	-22.3612	514.353
213.2000	-22.2208	516.38
213.0000	-22.2544	518.42
212.8000	-22.2993	520.473
212.6000	-22.2841	522.548
212.4000	-22.2861	524.64
212.2000	-22.2496	526.741
212.0000	-22.2471	528.86
211.8000	-22.444	530.988
211.6000	-22.6435	533.136
211.4000	-22.6633	535.302
211.2000	-22.6114	537.48
211.0000	-22.8431	539.679
210.8000	-22.7506	541.904
210.6000	-23.0113	544.151
210.4000	-23.1377	546.421
210.2000	-23.0198	548.711
210.0000	-23.024	551.027
209.8000	-23.0005	553.363
209.6000	-22.9889	555.708
209.4000	-23.1088	558.062
209.2000	-23.0934	560.434
209.0000	-22.9353	562.819
208.8000	-22.6812	565.216
208.6000	-22.3168	567.622
208.4000	-21.7984	570.039
208.2000	-21.5428	572.467
208.0000	-21.4501	574.906
207.8000	-21.2581	577.353
207.6000	-21.2385	579.804
207.4000	-21.1923	582.257
207.2000	-21.3116	584.716
207.0000	-21.2702	587.182
206.8000	-21.0505	589.651
206.6000	-20.6092	592.13
206.4000	-20.4406	594.613
206.2000	-20.1994	597.103
206.0000	-19.9502	599.598
205.8000	-19.549	602.093
205.6000	-19.1444	604.588
205.4000	-18.4855	607.082
205.2000	-18.0887	609.575
205.0000	-17.7362	612.052
204.8000	-17.217	614.519
204.6000	-16.4069	616.972
204.4000	-15.7238	619.403
204.2000	-15.3009	621.808
204.0000	-14.8332	624.188
203.8000	-14.0401	626.544
203.6000	-13.4303	628.871
203.4000	-12.9001	631.163
203.2000	-12.123	633.425
203.0000	-11.7532	635.647
202.8000	-11.1879	637.827
202.6000	-10.5646	639.964
202.4000	-10.0005	642.054
202.2000	-9.33931	644.094
202.0000	-8.81817	646.086
201.8000	-8.58667	648.019
201.6000	-8.30038	649.893
201.4000	-7.87875	651.706
201.2000	-7.43439	653.454
201.0000	-6.96168	655.14
200.8000	-6.03864	656.756
200.6000	-5.63435	658.301
200.4000	-5.34372	659.773
200.2000	-4.68789	661.174
200.0000	-4.47842	662.504
199.8000	-4.062	663.76
199.6000	-3.70391	664.953
199.4000	-3.1786	666.083
199.2000	-2.71543	667.153
199.0000	-2.62196	668.165
198.8000	-2.80367	669.121
198.6000	-2.58412	670.016
198.4000	-2.1236	670.859
198.2000	-1.62298	671.65
198.0000	-1.4137	672.388
197.8000	-1.24861	673.071
197.6000	-1.04145	673.704
197.4000	-0.78558	674.289
197.2000	-0.866728	674.821
197.0000	-1.51591	675.306
196.8000	-1.20242	675.75
196.6000	-0.981962	676.148
196.4000	-1.10726	676.508
196.2000	-0.848446	676.844
196.0000	-0.702802	677.158
195.8000	-0.428549	677.453
195.6000	-0.336238	677.736
195.4000	-0.575993	678.007
195.2000	-0.690029	678.278
195.0000	-0.741836	678.548

##### Extended Information
[Comments]
Sample name	Mota_1kx8_d06_TCEP_melting
Comment	test
User
Division
Company	EPFL

[Detailed Information]
Creation date	12.07.2017 13:24

Data array type	Linear data array * 2
Horizontal axis	Wavelength [nm]
Vertical axis(1)	CD [mdeg]
Vertical axis(2)	HT [V]
Start	250 nm
End	195 nm
Data interval	0.2 nm
Data points	276     

[Measurement Information]
Instrument Name	CD-Spectrometer
Model Name	J-815
Serial No.	A007961168

Accessory	PFD-425S
Accessory S/N	A001061180
  Temperature	24.98 C
  Control Sonsor	Holder
  Monitor Sensor	Holder
  Cell Length	10 mm

Photometric Mode	CD, HT
Measure Range	250 - 195 nm
Data pitch	0.2 nm
Sensitivity	Standard
D.I.T.	8 sec
Bandwidth	1.00 nm
Start Mode	Immediately
Scanning Speed	50 nm/min
Baseline Correction	None
Shutter Control	Auto
PMT Voltage	Auto
Accumulations	2
Solvent	phosphate
Concentration	20 umol/L
End Temperature.	25 C
Start Temperature.	90 C
Temperature. Interval	5 C
Ramp Rate	5 C/min

